211
332
350
395
420
449
483
478
441
423
428
419
420
418
403
360
349
403
441
429
408
383
351
333
336
360
363
345
329
347
397
423
389
336
307
298
306
311
276
241
249
279
306
314
328
340
340
357
398
404
386
339
335
397
419
402
415
458
525
580
594
592
650
660
661
661
662
662
662
663
663
663
663
662
662
662
662
663
663
663
663
663
662
663
662
662
662
662
662
662
663
662
663
662
663
662
662
663
663
663
663
663
662
663
662
662
663
662
663
663
663
662
662
662
662
662
662
663
662
663
663
663
662
663
662
662
662
662
663
662
663
662
662
662
661
661
661
661
661
661
660
659
656
606
522
469
439
393
349
320
298
297
308
325
326
323
311
305
316
313
298
283
293
294
293
312
329
309
280
269
270
262
257
258
275
310
330
331
350
383
404
414
419
434
474
513
496
438
405
418
431
405
364
333
328
331
344
368
364
315
235
178
143
120
96
61
8
0
0
0
0
0
0
0
0
0
0
0
0
0
0
0
0
0
0
0
0
0
0
0
0
0
0
0
0
0
0
0
0
0
0
0
0
0
0
0
0
0
0
0
0
0
0
0
0
0
0
0
0
0
0
0
0
0
0
0
0
0
0
0
0
0
0
0
17
152
275
344
380
422
476
533
572
579
586
588
580
558
541
548
563
571
551
483
390
322
314
320
290
274
282
296
311
324
330
335
346
378
426
463
481
479
489
502
517
522
506
505
525
523
486
456
443
447
472
497
522
552
595
596
572
541
535
550
546
519
516
530
553
586
585
565
538
485
422
375
367
356
317
270
231
204
213
241
287
317
343
377
404
422
403
381
377
376
392
420
435
411
381
384
419
457
486
493
503
497
481
487
482
486
525
568
589
590
591
577
523
458
415
376
329
300
289
299
313
329
338
356
366
365
353
348
324
300
283
264
235
212
218
247
290
342
368
347
315
285
262
245
244
275
317
353
360
350
332
332
354
366
362
356
366
381
403
434
449
434
403
387
373
394
436
467
486
470
466
469
461
442
420
416
412
413
418
426
419
398
393
410
450
469
460
447
457
499
553
584
590
582
596
642
659
660
662
662
662
662
663
662
662
662
663
663
662
663
663
662
663
663
663
662
663
663
663
663
663
662
663
662
663
663
663
662
662
663
663
663
663
663
663
662
663
663
663
663
662
662
661
660
616
422
305
305
337
356
341
309
278
269
261
229
201
191
203
237
270
283
284
287
257
224
199
172
164
148
126
108
94
103
131
150
170
206
246
284
301
309
317
347
364
335
294
267
263
272
272
279
286
302
305
287
263
228
203
181
182
206
252
283
275
267
249
235
251
268
254
236
230
205
191
187
209
260
300
326
326
321
292
264
246
230
209
195
203
206
205
197
190
184
160
107
54
14
29
74
121
160
171
156
129
108
98
108
130
153
167
191
228
260
294
303
308
311
306
268
210
161
133
106
60
1
0
0
0
0
0
0
0
0
0
0
0
0
0
0
0
0
0
0
0
0
0
0
0
0
0
0
0
0
0
0
0
0
0
0
0
0
0
0
0
0
0
0
0
0
0
0
0
0
0
0
0
0
0
0
0
0
0
0
0
0
0
0
0
0
0
0
0
0
0
0
0
0
0
22
156
247
261
236
247
320
432
541
570
526
491
501
521
538
539
521
481
441
419
412
398
377
352
333
349
380
402
416
439
469
479
461
448
475
527
569
573
559
542
539
535
546
578
608
614
606
606
604
598
606
605
618
629
642
653
657
659
660
660
661
661
660
661
659
651
595
540
519
508
474
440
406
390
405
437
467
464
426
384
371
373
366
361
371
397
422
435
438
465
520
572
603
623
631
647
659
660
661
661
662
662
662
662
662
662
662
663
663
662
662
663
663
662
663
663
663
662
662
663
662
663
662
662
662
662
662
661
661
659
614
516
472
475
477
450
408
391
394
379
363
382
403
416
408
378
335
296
258
238
228
220
219
225
224
215
223
248
256
248
256
260
240
227
228
230
377
382
407
426
442
471
495
478
435
421
457
518
553
561
546
519
507
509
536
561
583
613
604
561
540
560
593
620
647
654
649
641
639
649
652
649
624
571
505
473
470
472
471
454
413
392
381
365
354
358
343
309
289
330
397
442
440
387
324
287
272
282
338
385
360
316
286
296
351
409
450
482
494
461
420
396
374
344
334
360
382
392
379
344
317
308
299
300
328
349
339
298
247
199
156
99
25
0
0
0
0
0
0
0
0
0
0
0
0
0
0
0
0
0
0
0
0
0
0
0
0
43
78
94
111
123
146
199
270
337
388
404
421
453
501
552
576
576
568
536
483
409
333
307
309
293
273
261
249
214
180
163
170
183
193
207
228
259
277
278
278
277
281
282
279
288
323
349
352
354
372
390
401
411
414
398
391
416
464
483
475
483
492
501
530
564
587
595
592
584
587
605
628
649
650
628
606
606
624
632
599
546
504
481
458
443
423
390
361
343
332
333
329
325
330
348
383
415
433
428
399
358
362
436
517
578
589
584
605
653
659
661
660
661
661
661
660
660
659
645
550
459
430
433
424
416
407
389
359
312
258
203
182
210
228
245
275
320
369
398
416
425
444
483
521
537
535
523
508
495
493
499
496
486
462
450
439
427
423
430
441
476
515
552
549
536
526
556
592
572
539
507
479
452
424
434
460
493
518
526
546
574
596
581
537
466
416
397
385
399
419
422
434
450
449
434
418
392
324
319
329
381
437
467
479
506
549
576
580
564
536
500
460
407
361
348
309
252
214
188
189
191
186
184
215
242
236
234
248
269
278
278
292
307
300
275
268
288
319
357
399
434
438
441
464
498
524
562
581
587
586
584
623
651
635
572
514
477
460
461
453
460
485
513
506
465
423
400
376
342
301
275
256
251
246
247
249
240
226
199
171
161
169
190
204
221
257
282
294
298
271
228
186
170
192
221
268
296
285
265
247
235
241
280
314
328
357
385
396
377
327
282
259
253
274
288
293
284
256
223
208
220
260
300
332
352
358
369
372
365
355
343
329
290
226
159
129
117
118
128
145
205
265
280
260
243
269
308
311
306
307
303
288
274
290
326
359
365
355
374
401
422
428
426
430
437
438
446
467
476
466
451
457
480
504
518
524
513
489
477
474
465
429
375
320
266
220
204
211
213
189
148
141
167
194
187
145
73
16
0
0
0
0
6
5
0
0
0
11
19
35
62
90
95
84
59
45
49
66
67
49
18
0
0
0
0
0
0
0
0
0
0
0
0
0
0
0
0
0
0
0
0
23
112
204
257
303
351
397
414
385
336
336
367
378
374
384
422
457
461
458
477
488
464
450
450
454
452
414
378
382
421
458
474
483
519
554
567
557
532
509
473
413
352
335
367
387
399
412
402
403
446
482
473
436
409
396
368
344
348
348
322
296
326
380
439
453
444
443
471
505
516
521
546
574
579
545
531
559
596
609
590
587
600
584
550
530
524
501
459
405
364
342
329
337
359
384
364
324
299
311
317
296
279
274
284
300
356
398
403
415
422
453
477
485
500
513
507
503
504
520
544
581
606
606
599
621
656
658
658
643
558
461
418
416
400
384
389
400
397
363
319
293
293
304
293
256
217
194
177
187
202
232
248
237
198
175
177
166
121
69
44
37
27
9
0
0
0
0
0
0
0
0
0
0
0
0
0
0
0
0
0
0
0
0
0
0
0
0
0
0
0
0
0
0
0
0
0
0
0
0
0
0
0
0
20
70
92
96
82
49
30
1
0
0
0
6
45
86
81
40
8
0
0
0
0
0
0
0
0
0
0
0
0
0
0
0
0
0
0
0
0
0
0
0
0
0
0
0
0
0
0
0
0
0
0
0
0
0
0
43
127
187
236
274
288
270
244
236
255
281
300
294
298
306
292
292
320
371
412
437
457
469
479
477
452
433
445
453
427
393
394
411
412
401
403
431
454
448
426
419
430
444
426
398
402
414
423
419
406
388
378
364
329
290
272
278
260
240
243
286
330
375
371
397
415
410
421
456
515
551
560
563
554
524
489
475
487
513
517
507
510
528
563
611
652
657
657
657
659
659
659
660
660
661
661
661
661
662
661
662
662
662
662
661
662
662
661
662
662
662
662
662
662
662
662
662
662
662
662
661
661
661
660
658
649
624
608
615
619
610
590
569
578
595
573
529
487
476
489
498
493
495
516
548
558
538
526
534
523
507
523
551
542
510
501
517
522
489
442
420
446
490
536
563
561
539
528
524
516
522
530
516
494
476
456
449
443
432
461
540
638
660
661
662
662
662
662
662
662
662
662
662
662
663
662
663
662
662
662
662
662
662
663
662
662
662
662
662
662
662
662
662
662
662
662
661
661
660
655
601
548
535
531
529
536
555
556
556
542
524
519
531
564
599
618
619
584
555
555
568
578
555
516
492
479
467
461
433
401
361
314
286
303
359
416
439
421
423
433
426
422
428
450
496
568
619
621
606
587
579
576
564
547
526
523
532
546
542
539
547
545
524
482
413
354
339
331
321
326
348
356
353
353
355
360
368
362
355
352
340
327
294
260
235
176
86
33
12
0
0
0
0
0
0
0
0
0
0
0
0
0
0
0
0
0
0
0
0
0
0
0
0
0
0
0
0
0
0
0
0
0
0
0
0
0
0
0
0
0
0
0
0
0
0
0
0
0
0
0
0
0
0
0
0
0
0
0
0
0
0
0
0
0
0
0
0
0
0
0
0
0
0
0
0
0
0
0
0
0
0
0
0
0
50
131
190
222
254
291
322
357
397
444
449
416
415
451
494
520
518
508
510
524
526
515
508
508
508
518
524
510
509
505
460
411
396
398
377
328
269
236
208
180
171
169
166
135
77
25
12
18
37
55
66
58
63
99
162
217
268
288
292
293
306
335
358
377
392
394
368
317
274
255
286
321
344
358
398
443
447
442
416
372
325
306
300
291
265
232
212
208
208
183
149
108
89
138
192
231
262
286
322
361
370
345
315
292
268
235
215
232
261
280
316
354
366
352
330
333
386
460
493
494
508
529
544
563
571
580
582
580
579
582
569
518
466
438
411
387
369
373
388
378
359
340
332
318
315
310
280
245
220
230
270
290
278
235
219
225
241
265
277
276
291
305
312
342
372
388
388
394
421
458
473
430
361
321
312
293
304
310
305
301
320
364
415
437
416
362
298
221
152
124
143
174
208
235
250
254
242
221
207
190
182
210
262
304
336
348
358
364
362
370
375
380
380
381
392
394
385
386
379
367
352
354
379
407
424
441
470
489
507
535
561
567
582
606
627
624
626
638
654
657
657
654
644
621
604
632
658
659
660
660
660
659
658
646
597
552
546
538
513
490
472
474
490
499
485
486
518
566
600
608
591
575
574
556
503
448
414
393
364
329
320
308
277
256
246
257
280
315
381
473
557
631
657
658
658
659
660
660
660
661
661
660
660
660
656
596
498
426
381
359
328
333
392
436
421
374
352
345
335
330
340
356
387
388
351
316
283
269
272
260
240
217
208
196
187
178
174
166
144
107
70
33
0
0
0
0
0
0
0
0
0
0
0
0
0
0
46
110
138
164
191
200
168
156
170
194
219
238
272
325
386
447
499
499
445
419
455
518
568
607
615
590
564
530
494
470
464
461
458
458
454
435
419
418
438
479
523
530
495
463
491
551
600
638
655
658
658
658
651
603
556
533
525
524
533
534
528
499
463
462
478
505
521
541
577
608
605
555
525
526
525
511
479
451
438
451
471
481
513
553
575
550
492
433
417
445
474
472
435
388
354
334
325
313
314
329
339
322
297
291
292
296
282
252
228
230
251
262
237
202
211
260
327
402
479
521
509
487
499
531
555
567
555
528
518
530
548
580
631
650
635
608
577
538
484
426
377
357
367
372
357
345
356
394
440
459
452
451
453
448
439
442
443
453
478
492
478
446
403
359
317
326
382
427
422
396
384
404
435
457
536
530
509
463
450
462
445
395
374
392
415
403
384
364
344
331
341
340
323
276
203
134
96
71
23
0
0
0
0
0
0
0
0
0
0
0
0
0
0
0
0
0
0
0
5
91
178
240
257
256
276
318
369
422
477
502
485
444
440
457
487
516
533
534
536
528
534
543
519
493
480
483
500
505
487
479
483
499
525
550
563
602
641
640
619
603
591
585
580
586
597
602
594
577
554
539
532
553
570
569
541
499
484
484
470
447
430
414
392
376
386
423
417
425
436
439
443
456
485
499
489
456
412
382
354
332
321
306
284
284
297
304
291
267
247
226
226
246
247
204
169
178
193
167
124
69
24
0
0
0
0
0
0
0
0
0
0
0
0
0
0
0
0
0
0
0
0
0
0
0
0
0
0
0
0
0
0
0
0
0
0
0
0
0
0
0
0
0
0
0
0
0
0
0
0
0
0
0
0
0
0
0
61
129
178
207
220
250
314
389
429
430
401
365
323
297
310
337
340
340
351
364
396
418
418
410
385
354
315
282
285
322
375
402
372
339
316
296
273
262
248
227
192
156
132
100
59
29
26
24
16
9
0
0
0
20
73
123
152
164
168
156
137
119
94
61
27
40
82
141
180
175
148
129
162
183
165
142
130
137
120
106
119
125
113
109
126
177
227
262
305
361
398
405
389
391
422
464
469
438
420
422
410
377
351
359
361
375
388
388
380
360
349
375
407
417
419
424
421
404
375
338
336
357
376
411
429
426
414
399
396
414
424
441
457
483
495
492
526
578
619
618
607
606
602
622
652
659
660
661
661
661
662
662
662
662
662
662
662
662
662
662
662
662
662
662
662
662
662
661
661
661
661
661
661
662
662
661
662
662
661
661
660
659
656
625
562
491
445
425
399
374
365
376
384
378
357
333
332
355
381
398
436
484
505
515
537
545
558
598
620
618
626
651
651
648
653
655
658
660
660
660
659
658
644
579
535
529
535
514
493
501
493
473
483
498
498
504
545
579
604
639
654
657
659
659
659
660
661
662
661
662
662
662
662
662
662
662
662
662
662
662
662
662
662
662
662
662
661
661
661
661
661
660
659
639
511
369
285
263
259
233
186
126
58
13
2
0
0
0
0
4
37
80
89
86
94
118
147
167
172
151
127
103
83
79
99
126
173
221
256
270
291
286
292
333
372
414
458
497
532
560
554
520
490
492
501
479
453
456
477
501
495
477
478
487
484
460
401
331
295
268
228
198
176
188
219
227
195
144
96
61
43
47
59
70
109
153
158
166
193
189
166
179
209
206
190
183
175
174
210
250
282
294
286
278
257
222
213
231
239
238
251
253
227
195
173
173
174
160
148
146
165
198
239
291
345
374
387
417
454
468
492
536
534
511
521
536
525
494
449
423
406
368
298
234
182
131
106
96
101
89
24
0
0
0
0
0
0
0
0
0
0
0
0
0
0
0
0
0
0
0
0
0
0
0
0
0
0
0
0
0
4
54
97
118
114
72
13
0
0
0
0
0
0
0
0
0
62
142
152
98
33
0
0
12
57
114
151
158
145
123
138
192
246
286
311
310
303
308
307
303
306
299
268
225
180
167
197
246
272
258
240
268
304
334
357
376
380
384
369
346
367
417
461
507
555
577
542
501
487
501
529
544
545
545
542
531
508
479
442
413
413
408
384
365
365
365
362
342
307
310
355
394
402
411
413
429
457
506
555
573
553
531
541
566
558
507
477
498
563
631
646
646
638
619
612
631
648
657
659
659
660
661
661
661
661
665
660
660
660
660
661
661
661
661
661
662
662
662
662
662
662
662
662
662
662
662
662
662
662
662
662
662
662
662
662
662
662
662
662
662
662
662
662
662
662
662
662
662
662
660
646
507
380
319
293
265
219
160
103
85
107
149
186
213
239
285
358
426
446
421
399
392
391
414
457
489
521
538
527
520
551
593
598
583
559
550
581
628
654
657
658
658
655
629
574
540
544
565
586
586
532
465
439
445
429
398
374
408
402
390
356
333
344
381
405
399
408
438
452
442
413
371
331
288
264
275
278
280
303
317
303
297
335
371
395
424
448
458
437
438
458
463
448
438
472
509
511
460
391
357
347
308
251
201
164
126
89
80
93
119
104
47
38
71
73
59
67
80
91
115
122
113
120
123
123
131
144
156
150
128
97
73
47
4
0
0
0
0
0
0
0
0
0
0
0
0
0
0
0
0
0
0
0
0
0
0
0
0
0
0
0
0
0
0
0
0
0
0
0
0
0
0
0
0
0
0
0
0
0
0
0
0
0
0
0
0
0
0
0
0
0
0
0
0
0
0
0
0
0
0
0
0
0
0
0
0
0
91
238
329
386
443
490
510
505
524
545
555
565
589
608
635
654
655
657
657
657
659
659
660
660
660
661
661
662
662
662
662
662
662
662
663
663
663
663
663
663
663
662
663
662
663
663
663
664
663
663
663
663
662
662
663
662
663
663
662
662
662
662
661
660
651
536
428
413
460
489
486
491
489
478
465
461
466
476
494
484
450
427
427
421
407
384
372
378
370
348
320
297
297
311
318
297
284
298
280
224
184
181
211
244
263
283
299
309
334
357
378
374
336
308
316
327
307
251
204
181
181
184
161
121
71
34
12
3
28
66
83
93
86
83
89
77
56
68
94
107
103
92
84
98
114
118
112
101
106
125
156
169
167
170
187
229
265
300
343
387
400
360
315
271
267
297
325
338
340
350
378
411
430
438
422
401
410
447
500
549
566
574
612
653
657
657
658
657
655
653
649
642
641
640
641
623
603
586
569
552
558
578
580
600
616
594
557
512
464
431
426
422
400
402
419
424
433
470
520
539
544
543
561
566
540
520
505
488
447
410
393
415
464
511
538
528
492
457
447
450
429
398
361
333
306
301
293
285
259
229
203
191
205
205
211
229
224
223
231
254
280
304
311
331
375
411
420
393
356
325
316
336
364
365
318
248
185
153
128
86
24
0
0
0
0
0
0
0
0
0
0
0
0
0
0
0
0
0
0
0
0
0
0
0
0
0
0
0
0
0
0
0
0
0
0
0
0
0
28
138
235
256
246
273
331
374
394
393
391
391
407
428
444
464
489
497
456
416
396
385
363
347
368
418
477
526
551
546
502
441
405
417
461
487
465
430
416
442
471
481
475
462
448
466
514
542
568
588
576
582
636
658
659
659
658
653
627
609
601
573
546
542
555
548
524
504
496
482
477
502
538
538
526
500
467
455
484
519
503
469
446
438
425
410
407
412
393
373
391
415
431
438
441
431
402
382
372
360
361
371
379
382
399
422
417
394
377
378
408
461
517
569
628
655
656
657
658
660
661
661
661
661
661
661
662
662
662
662
663
663
662
663
663
662
662
662
662
662
661
661
661
660
660
659
656
654
652
650
625
576
545
527
520
533
538
524
501
494
511
547
573
565
551
590
641
655
653
657
658
659
659
658
659
660
660
659
658
654
632
576
511
499
508
494
471
470
489
488
465
438
431
417
399
403
416
412
398
392
399
390
395
404
411
416
424
415
388
345
313
304
313
310
295
302
330
355
377
385
368
350
329
342
398
455
467
447
466
505
502
470
422
380
389
410
406
396
382
337
290
280
284
305
344
355
342
342
377
409
399
359
347
390
429
415
368
316
290
301
328
370
382
357
310
262
229
230
231
231
242
249
245
243
243
245
261
298
337
358
378
391
380
337
295
242
192
140
108
108
104
88
70
50
14
0
0
0
0
0
0
0
0
0
0
0
0
0
0
0
0
0
0
0
0
0
0
0
0
0
0
0
0
0
0
0
0
0
0
0
0
0
0
0
0
0
0
0
0
0
0
0
0
0
0
0
0
0
59
136
185
228
242
230
226
234
259
284
284
284
299
338
373
400
423
463
471
440
402
390
392
391
384
374
369
347
322
296
279
272
237
176
112
63
54
76
85
42
0
0
0
0
0
0
0
0
0
0
0
0
0
0
0
0
0
0
0
0
0
0
0
0
0
0
0
0
0
0
0
0
107
252
335
340
318
283
261
241
220
214
226
236
217
173
147
144
138
148
166
208
199
164
134
116
114
121
111
104
114
127
121
85
47
36
65
79
57
50
67
98
122
162
202
215
221
217
205
155
91
51
43
76
110
132
149
180
226
293
363
410
429
436
410
382
383
416
423
363
266
207
204
232
259
290
358
429
459
465
482
513
542
573
593
625
656
659
660
660
660
659
655
614
542
530
549
536
493
462
426
389
373
379
417
473
520
542
544
569
596
618
622
633
650
639
612
584
570
580
576
558
554
557
564
594
613
602
578
578
594
594
600
605
598
584
587
593
584
554
509
466
450
442
454
483
513
541
551
528
499
463
447
444
432
429
444
450
438
435
451
467
471
485
513
566
638
657
658
660
660
661
661
661
661
661
661
661
661
660
660
658
655
624
565
515
492
487
474
468
435
409
408
407
408
413
431
438
414
398
388
360
308
243
182
140
116
103
93
68
47
57
75
103
146
161
144
115
90
91
135
195
260
296
292
285
279
282
284
291
308
316
321
340
370
379
381
377
374
388
393
380
348
326
336
365
378
374
359
350
347
339
345
387
408
400
392
394
410
436
443
420
401
396
397
417
459
501
512
495
479
457
444
433
424
450
502
543
543
514
487
466
444
403
360
355
369
409
463
498
505
503
521
562
592
597
581
565
597
646
653
647
648
650
645
650
656
659
660
660
661
662
662
661
662
661
661
661
661
661
661
660
659
652
578
520
513
507
472
450
463
501
538
562
569
580
588
594
567
511
482
484
507
528
573
618
636
637
629
638
657
659
660
660
659
656
622
585
594
602
602
596
601
612
590
550
517
502
494
485
476
470
474
481
511
553
569
556
541
543
544
514
489
475
472
461
419
400
408
409
411
424
433
418
374
322
277
257
248
213
160
120
139
193
202
167
136
118
103
71
34
32
64
59
20
0
0
0
0
0
0
0
0
0
0
0
0
0
0
0
0
0
0
21
32
9
0
0
0
0
0
0
0
0
0
0
0
0
0
0
0
0
0
0
0
0
0
0
0
0
0
0
0
0
0
0
0
0
0
0
0
0
0
11
99
174
200
227
274
334
371
378
388
389
379
384
437
501
529
518
493
468
447
413
381
383
394
398
403
401
419
442
436
420
408
415
413
383
341
325
358
376
364
358
367
401
439
450
423
384
362
344
346
349
348
329
297
273
282
302
317
350
379
377
388
431
484
526
571
621
658
660
660
661
661
662
662
662
662
663
662
662
662
662
662
662
662
662
662
662
662
662
662
660
645
548
487
462
426
379
363
359
340
341
379
428
451
421
372
357
388
448
488
487
464
431
387
365
355
353
341
313
278
256
230
187
138
115
109
90
62
69
123
184
214
221
228
251
282
302
298
289
302
325
351
364
350
345
354
351
334
311
285
262
232
209
198
192
218
262
305
345
364
368
391
429
462
487
508
510
498
503
511
493
468
446
433
434
430
405
352
294
249
225
201
177
163
156
165
187
195
194
205
248
281
310
320
297
292
278
228
180
165
178
174
161
165
178
162
132
116
121
135
148
171
203
239
284
313
329
354
394
404
383
355
340
329
288
242
228
246
264
261
248
236
254
292
357
419
448
455
441
404
379
392
387
367
344
310
275
240
235
231
237
250
256
245
245
254
260
280
323
339
332
320
297
277
272
262
248
238
228
213
180
160
157
148
150
141
118
92
71
64
58
78
117
168
221
264
313
344
349
358
400
421
424
430
445
474
478
475
481
472
452
448
492
532
553
549
540
555
573
584
584
593
594
569
540
508
473
432
392
388
415
438
455
460
430
404
385
374
379
379
371
354
326
267
211
220
275
320
348
361
364
367
371
380
395
395
382
391
414
427
421
443
489
551
571
578
573
564
577
585
568
524
503
528
547
552
546
550
556
545
534
555
599
647
654
638
625
655
659
660
661
662
662
662
662
662
662
662
662
661
661
661
660
658
646
598
553
525
474
466
472
475
447
419
415
424
446
470
490
500
495
482
491
541
587
595
561
522
493
500
540
579
602
597
592
594
588
596
600
596
606
623
627
634
638
633
630
609
576
562
584
617
630
613
599
617
640
623
588
565
539
505
468
427
364
320
295
277
270
287
337
393
416
420
413
406
388
330
282
299
325
319
300
285
258
199
145
74
20
14
0
0
0
0
0
0
0
0
0
0
0
0
0
0
0
0
0
0
0
0
0
0
0
0
0
0
0
0
0
0
0
0
0
0
1
0
0
0
0
0
0
0
0
0
0
0
0
0
0
0
0
0
0
0
0
26
138
203
237
270
279
256
260
314
399
460
452
440
449
491
525
516
502
479
444
432
462
486
496
500
510
554
598
606
556
505
492
478
443
413
383
383
382
379
382
384
391
383
362
346
358
395
414
410
400
398
403
410
407
406
419
412
385
350
323
290
235
175
130
105
113
124
124
135
139
138
142
151
180
209
259
324
362
379
369
382
436
491
493
463
442
435
453
453
455
455
457
456
437
413
367
330
326
321
290
258
249
245
253
262
262
270
286
298
299
279
280
295
306
284
238
204
189
175
185
210
219
221
236
237
233
236
257
245
221
202
184
158
134
109
94
73
65
84
119
157
182
187
189
185
175
184
212
260
313
370
401
427
463
505
519
491
489
500
506
517
541
582
612
589
528
474
432
411
394
363
372
422
459
410
363
368
391
419
416
406
415
429
424
417
417
407
422
466
516
539
535
546
582
601
598
608
625
650
655
654
646
622
568
510
488
489
517
560
600
613
592
565
543
529
534
551
568
604
653
653
634
617
623
642
651
654
655
653
653
654
657
657
657
651
604
552
546
554
583
604
612
615
629
650
656
659
660
661
661
662
661
662
662
662
663
662
662
662
662
662
662
662
662
663
662
663
662
662
662
662
662
662
662
663
662
662
662
662
662
662
662
662
662
663
662
662
662
662
662
662
662
662
661
662
662
661
660
657
621
505
410
388
409
434
416
383
346
302
270
289
341
384
400
376
344
352
385
404
389
370
344
296
266
234
199
157
107
75
65
43
0
0
0
0
0
0
0
0
0
0
0
0
0
0
0
0
0
0
0
0
0
0
0
0
0
0
0
0
0
0
0
0
0
0
23
68
101
128
158
184
196
231
295
368
419
421
377
328
299
310
335
367
390
411
437
467
496
512
509
507
505
476
442
447
508
566
592
588
573
546
515
477
422
394
390
395
398
416
442
453
455
443
420
420
433
409
357
320
313
337
358
364
367
351
345
341
338
328
316
299
294
280
253
200
107
19
0
0
0
0
0
0
0
0
0
0
0
0
0
0
0
0
0
0
0
0
0
0
0
0
0
0
0
0
0
0
0
0
0
0
0
0
0
0
0
0
0
0
0
0
0
0
0
0
0
0
0
0
0
0
0
0
0
0
0
0
0
0
0
0
35
121
173
180
190
227
268
306
330
363
421
459
443
409
380
343
321
322
342
376
430
474
478
469
461
475
498
520
557
601
652
656
658
659
658
659
660
660
660
660
660
659
660
660
660
660
660
661
661
660
658
638
562
480
436
433
437
433
436
478
511
520
497
472
456
450
464
487
480
431
402
404
380
356
377
450
517
532
509
499
508
537
575
597
595
577
545
530
522
521
508
464
435
443
481
522
552
572
563
541
530
529
526
545
578
598
597
615
644
656
657
656
629
563
491
420
369
352
382
447
485
485
472
477
490
474
427
392
380
345
308
288
285
283
289
296
292
276
236
177
130
90
64
43
28
67
137
201
236
284
345
396
417
416
431
448
455
446
422
435
441
426
404
385
375
366
377
396
439
479
478
473
462
447
451
454
471
495
487
469
465
456
435
408
383
369
349
318
281
269
256
232
233
256
283
282
256
225
232
253
270
306
344
372
414
466
477
457
450
432
403
391
385
367
338
311
315
323
288
245
209
212
242
253
255
258
266
251
239
225
203
187
172
187
224
237
217
211
224
229
240
249
248
237
232
254
342
339
347
359
383
417
434
403
367
358
356
354
391
434
461
484
543
589
602
564
520
517
535
525
481
423
388
372
369
346
312
282
282
323
368
390
390
411
431
434
432
444
476
485
457
417
379
352
330
301
262
252
287
297
244
152
80
45
18
0
0
0
0
4
0
0
0
0
0
0
0
0
0
0
0
0
0
0
0
0
0
0
0
0
0
0
67
181
232
231
221
222
228
232
252
306
363
397
435
477
511
531
536
546
542
532
528
534
535
530
525
508
485
473
474
473
472
478
473
467
461
471
464
443
457
476
470
449
429
427
434
448
443
426
427
446
450
453
492
536
595
620
600
573
550
564
600
625
602
546
517
523
536
543
540
541
535
506
480
477
485
494
507
549
594
622
644
648
649
655
653
640
623
620
609
581
548
536
546
580
592
555
520
504
495
496
560
623
651
648
634
642
657
658
658
656
654
610
534
484
442
400
392
401
394
399
398
379
361
354
371
381
369
328
279
254
240
222
201
191
194
186
168
159
177
195
210
232
261
300
309
284
242
217
207
181
156
130
118
122
126
125
121
128
160
184
190
218
268
297
318
328
341
367
367
364
354
318
273
259
276
293
300
310
318
307
304
303
290
270
256
239
192
124
71
60
60
45
22
0
0
0
29
69
85
88
85
83
101
156
194
201
187
156
129
143
169
169
171
189
196
195
198
227
283
350
408
430
441
452
464
487
538
577
597
583
533
461
420
386
347
332
309
270
270
301
335
341
324
309
314
332
373
392
375
335
295
284
299
302
302
300
284
248
225
235
259
266
277
273
260
243
246
240
234
239
232
197
176
181
204
216
236
282
323
347
327
294
302
320
316
309
327
357
371
405
466
511
544
560
553
542
543
555
584
619
619
605
586
609
657
659
660
661
662
662
662
662
662
662
662
662
662
663
662
662
662
662
662
662
662
662
663
663
662
662
662
662
662
662
662
663
662
662
663
663
662
662
662
662
662
662
662
662
660
660
659
656
638
607
580
557
534
523
530
546
551
544
532
520
484
440
421
447
503
533
539
546
542
523
513
526
545
543
523
504
530
578
631
657
658
659
660
660
659
657
637
559
472
402
346
318
290
269
259
268
291
330
354
373
374
341
314
263
221
184
144
117
139
165
189
198
186
190
202
214
208
198
193
193
191
172
137
90
29
0
0
0
0
0
0
0
0
0
0
0
0
0
0
0
0
0
0
0
0
0
0
0
0
0
0
0
0
0
0
0
0
0
0
0
0
0
0
0
0
0
0
0
0
0
0
0
0
0
0
0
0
0
0
0
0
0
0
0
0
0
0
0
0
0
0
0
0
0
0
0
0
0
0
0
0
0
0
0
0
0
0
0
0
0
0
0
0
0
0
0
0
0
0
0
0
0
0
76
190
263
282
282
316
381
437
464
479
488
498
497
477
458
474
535
575
549
509
513
559
604
623
627
643
650
635
611
637
658
660
661
661
662
662
662
662
662
662
662
662
663
662
662
663
663
662
662
662
662
662
662
663
662
663
663
662
663
662
662
663
662
662
662
662
663
662
662
662
662
662
662
662
662
663
663
662
662
662
663
662
662
662
663
662
663
662
662
662
663
662
662
662
662
662
662
662
663
662
662
662
662
662
662
662
661
660
637
477
337
270
256
239
209
185
165
160
173
179
171
158
136
120
100
72
29
8
18
25
0
0
0
0
0
0
0
16
62
82
48
0
0
0
0
0
0
0
0
0
0
0
0
0
0
0
0
0
0
0
0
0
0
0
0
0
0
0
0
0
0
0
0
0
0
0
0
0
0
0
0
0
0
0
0
0
0
0
0
0
0
0
0
0
0
0
0
0
0
0
0
0
0
0
0
0
0
0
0
0
0
0
0
0
0
20
103
154
137
78
32
16
19
2
0
0
0
0
0
0
0
0
0
0
0
0
0
0
0
0
0
0
0
0
0
0
0
18
47
75
118
178
224
257
288
298
307
316
341
348
316
270
249
247
245
244
249
285
288
262
221
188
209
240
230
180
129
123
160
164
156
175
210
221
210
224
229
243
267
288
297
309
340
368
396
439
499
565
628
657
658
659
659
658
658
659
659
664
658
654
641
622
593
567
566
586
592
574
572
558
539
528
528
520
495
455
406
385
415
439
424
416
425
441
451
441
437
439
442
449
465
502
522
510
482
470
460
419
377
357
376
403
410
407
413
420
406
384
395
449
516
549
573
611
645
628
584
554
548
548
534
503
477
466
476
495
486
412
365
367
400
426
434
441
417
382
365
381
401
388
344
318
321
342
360
368
375
370
337
288
257
264
278
260
216
195
194
178
158
143
144
181
203
198
199
219
228
211
164
106
91
102
127
162
203
247
266
259
275
328
385
385
320
270
317
397
436
431
419
432
439
437
454
476
480
472
471
464
451
435
433
443
456
458
448
423
398
375
332
310
316
351
420
442
404
368
362
355
344
324
299
334
377
370
318
275
281
322
357
406
457
481
476
466
438
402
392
389
370
355
392
448
495
515
505
505
520
550
574
589
592
593
585
574
579
594
588
563
541
527
497
472
434
404
399
404
416
436
482
541
584
590
569
547
549
570
586
607
630
652
656
657
659
660
660
660
661
661
661
661
661
660
661
660
659
657
653
632
585
527
486
472
473
474
484
524
577
591
552
500
507
566
627
654
657
658
658
658
656
644
602
544
501
493
510
505
465
434
439
441
420
387
366
360
347
346
363
383
429
463
475
445
429
431
434
453
508
561
582
591
611
618
586
535
512
500
501
502
498
503
506
491
459
440
426
418
411
396
373
319
271
261
266
281
310
309
283
260
248
268
301
314
311
306
313
334
354
362
346
309
275
246
222
219
228
246
258
270
304
320
319
315
331
330
331
318
290
277
272
247
225
221
250
291
291
271
250
257
261
244
232
245
280
307
322
328
344
384
431
472
503
523
537
534
520
510
525
549
578
589
576
563
554
550
559
558
524
495
472
449
434
436
444
461
503
554
582
597
596
584
578
565
580
603
606
586
540
499
478
482
466
425
382
362
351
320
267
212
164
153
160
154
162
160
144
135
147
176
185
176
151
120
85
34
0
0
0
0
0
0
0
0
0
0
0
0
0
0
0
0
0
0
0
0
0
0
0
0
0
0
0
0
0
0
0
0
0
0
0
0
0
0
0
0
0
0
0
0
0
0
0
0
0
0
0
56
173
227
223
214
211
213
224
227
246
304
365
428
454
453
428
414
446
476
448
394
369
409
466
503
513
500
472
423
362
329
312
262
189
175
207
234
236
219
220
217
199
189
189
192
180
138
113
137
202
243
238
244
266
288
311
334
354
394
415
389
352
343
366
408
436
468
522
570
608
633
631
628
620
619
635
657
659
659
659
659
658
658
651
602
525
492
509
554
611
647
652
627
587
526
463
439
422
408
372
362
376
387
400
417
429
432
450
474
490
478
448
415
395
422
447
442
425
401
385
378
366
345
330
331
325
294
262
277
297
305
305
292
280
261
249
222
208
211
225
231
229
246
275
302
316
324
341
332
310
308
327
351
345
308
274
239
220
217
223
239
270
286
289
308
345
382
391
378
357
356
443
Pomiar: B_Lidia Czas badania: 32.99 sekund
