306
305
284
285
297
301
285
268
271
285
284
265
258
270
281
272
252
250
264
271
257
242
249
263
260
244
240
254
265
253
236
239
257
265
256
250
266
285
283
265
261
276
290
282
265
269
287
288
269
256
265
281
277
257
251
266
278
269
253
258
279
284
268
258
271
288
284
267
265
280
291
277
257
266
297
318
322
339
390
447
479
471
416
359
315
282
262
275
307
317
300
287
295
306
300
284
283
299
307
293
280
289
307
312
291
286
301
314
308
292
293
311
321
308
294
303
323
324
309
302
317
334
327
313
317
337
345
332
321
335
357
359
345
343
362
380
372
358
363
382
388
373
360
369
385
381
360
353
368
380
370
354
359
377
383
369
359
373
392
390
376
376
394
407
397
382
388
408
414
397
385
397
415
412
396
394
413
424
412
397
405
425
428
409
398
410
426
419
399
394
410
418
402
384
389
404
401
381
369
379
391
382
363
365
384
395
382
366
372
387
386
369
359
368
379
368
348
339
351
355
338
320
323
333
328
308
297
307
319
309
288
287
304
306
289
276
285
301
298
279
270
284
299
297
296
320
364
406
428
451
478
457
392
324
292
299
319
322
312
314
324
323
308
298
309
323
316
297
294
310
319
304
288
294
312
315
297
286
298
316
311
292
290
309
320
306
292
299
318
321
305
297
312
331
326
309
308
327
340
329
315
324
345
349
334
326
342
358
360
337
337
353
356
339
322
328
343
338
316
306
320
333
323
303
302
318
325
313
301
310
325
320
303
298
313
326
316
298
301
318
324
309
294
302
320
318
300
295
310
321
309
293
297
313
316
301
291
303
319
313
296
293
310
321
308
290
294
312
315
301
292
304
325
326
315
318
335
345
335
321
331
351
352
335
328
342
355
344
325
325
341
349
333
315
321
337
336
319
311
324
339
331
314
317
333
341
328
314
323
340
340
323
322
346
377
389
403
447
505
550
538
479
432
414
393
372
377
410
432
424
405
405
423
432
420
410
423
443
443
427
424
443
458
452
438
445
467
475
461
449
464
485
485
471
470
488
501
494
479
488
512
520
505
497
510
529
530
517
520
538
549
540
527
537
559
565
549
539
552
570
561
539
533
546
552
536
518
521
536
534
513
499
510
524
514
494
492
508
512
494
475
478
492
487
469
459
469
481
466
442
438
451
456
437
417
422
432
424
400
386
394
401
383
353
340
348
346
323
299
298
303
290
261
247
257
261
242
215
210
221
221
200
185
192
207
201
180
177
196
206
193
170
169
185
189
172
159
169
182
168
142
137
153
163
146
124
125
141
143
129
119
132
149
141
124
122
140
150
139
123
129
150
155
136
127
145
176
188
189
223
289
341
352
310
251
204
164
132
125
154
186
184
164
159
175
187
180
168
176
194
195
182
180
197
212
203
189
192
212
223
212
200
210
229
229
216
214
232
248
240
224
231
253
264
250
239
250
271
271
257
256
273
290
285
271
276
296
305
292
281
294
313
307
286
282
298
307
293
276
280
299
301
284
275
288
303
295
280
282
299
307
296
284
292
313
317
303
294
306
322
317
302
304
322
331
320
309
319
336
335
320
315
328
341
335
320
321
338
348
334
320
330
347
349
333
325
340
356
350
334
334
351
360
349
338
351
373
385
367
369
390
407
398
381
388
408
416
403
393
403
418
412
392
385
400
412
399
380
382
397
400
386
375
388
405
403
386
383
399
409
397
380
386
404
407
392
388
414
451
471
488
532
591
635
605
525
465
446
435
416
418
445
465
455
431
427
444
456
443
428
435
453
452
434
426
438
453
446
428
427
444
451
436
420
429
447
445
426
419
431
445
436
420
422
439
446
432
418
427
445
445
427
420
437
453
443
426
429
448
454
493
476
456
449
458
461
443
422
422
433
429
405
386
391
400
385
359
350
359
361
342
319
319
329
323
299
285
292
301
286
261
256
271
281
267
253
260
276
272
249
239
252
266
254
233
231
246
247
226
208
214
231
225
202
192
204
218
208
189
191
207
211
197
184
193
210
207
189
183
200
213
202
189
203
237
261
271
294
340
387
395
334
266
229
211
195
191
213
238
240
219
207
218
234
231
215
212
229
241
233
217
222
243
249
234
225
238
256
253
236
235
255
268
258
244
252
275
280
265
257
272
291
287
271
272
292
305
295
282
292
314
318
303
298
315
331
325
309
309
326
333
317
301
309
322
318
298
292
304
315
305
288
292
311
317
304
291
301
321
320
304
300
317
333
327
310
314
334
340
325
313
326
345
344
328
323
339
353
344
327
334
355
357
344
336
347
365
361
345
344
363
376
367
351
357
377
383
371
366
384
407
412
403
407
429
442
435
429
439
461
467
457
454
469
484
479
466
468
486
495
484
473
482
506
513
499
493
508
528
525
513
518
539
551
539
531
544
564
569
560
568
602
641
661
663
665
666
666
665
664
661
645
609
592
604
626
634
616
592
594
612
617
599
582
590
606
598
571
560
570
581
569
546
543
553
551
526
506
510
520
508
482
465
472
476
457
430
424
432
427
406
385
385
390
374
345
335
348
352
325
294
291
301
295
268
247
249
257
237
211
202
210
209
187
162
163
177
173
150
133
144
156
145
123
120
137
143
126
110
118
135
133
116
108
125
141
131
111
110
128
137
124
110
120
135
134
115
111
129
144
136
120
125
142
147
132
120
132
153
155
136
131
144
155
149
136
144
169
181
169
160
175
196
191
173
175
195
209
201
188
193
206
205
190
180
193
209
202
182
180
199
212
202
187
194
213
219
204
194
209
228
224
210
209
225
235
225
222
249
290
318
343
378
429
460
409
318
262
252
254
247
248
269
290
290
269
257
273
291
285
266
266
283
295
286
272
279
295
294
278
276
295
308
300
284
290
311
318
301
288
301
320
320
305
305
323
338
330
314
320
342
348
336
329
346
368
368
354
354
376
391
381
366
372
393
397
379
370
381
396
389
369
365
381
392
382
364
373
393
396
380
372
386
402
397
379
380
399
409
397
383
393
412
415
398
392
404
418
412
397
396
414
424
411
398
405
424
421
404
398
413
425
418
402
403
421
428
414
398
405
426
427
414
414
435
452
443
428
430
451
463
449
434
443
461
459
437
426
437
447
435
413
412
425
426
409
395
402
418
412
390
385
398
408
396
376
378
393
397
378
361
368
389
394
394
411
457
510
538
555
545
502
440
381
349
357
383
387
370
361
369
376
362
346
351
366
363
343
335
345
358
349
328
327
343
350
334
318
324
341
340
322
314
326
339
331
311
310
328
336
322
309
317
334
331
315
310
325
339
331
312
314
334
343
329
317
327
346
343
321
312
324
334
320
299
299
315
315
295
282
290
304
297
278
274
291
304
294
278
284
303
307
290
279
292
311
307
290
287
306
319
307
291
295
314
318
301
292
306
322
315
296
296
313
323
308
291
299
317
318
302
294
305
321
313
295
297
318
330
322
312
323
345
346
328
323
342
356
346
327
330
348
351
334
319
326
344
346
322
314
328
341
332
316
320
336
342
327
313
325
342
338
319
313
330
344
333
318
328
361
386
395
420
470
524
547
503
442
407
385
360
348
367
396
403
384
369
380
395
391
373
371
388
398
387
372
380
399
400
382
373
387
403
398
381
382
399
410
399
381
389
408
410
394
386
400
416
410
393
393
410
419
406
395
404
424
425
408
400
415
430
423
405
405
420
424
410
393
397
408
400
376
365
378
389
375
352
352
367
346
338
347
362
358
337
329
341
353
343
323
323
341
346
328
312
319
332
327
307
301
314
323
310
291
292
309
312
294
281
290
305
300
281
274
289
300
290
273
276
291
292
275
267
280
295
288
270
267
285
299
290
276
287
311
316
301
289
300
316
311
294
292
310
319
302
280
285
301
300
281
270
280
294
287
268
268
289
298
282
266
275
295
297
279
272
286
301
293
273
276
300
316
317
321
357
417
458
477
474
442
394
340
298
290
313
335
329
317
324
336
330
314
311
327
339
327
308
311
329
335
321
309
318
334
332
315
311
326
337
326
310
315
334
337
321
311
324
343
340
324
322
340
353
345
332
340
358
362
350
346
362
379
374
359
360
378
391
380
365
369
385
386
369
356
366
378
365
344
342
360
369
354
339
348
364
361
343
337
352
369
359
340
340
359
369
355
340
348
366
367
350
342
354
368
356
340
345
362
367
351
336
345
362
359
340
334
349
361
351
334
336
349
353
339
325
333
349
344
325
323
339
351
342
329
339
363
370
354
340
350
371
369
351
350
368
374
356
337
342
361
361
341
326
333
346
337
314
308
327
338
325
308
310
326
330
316
306
319
332
322
302
300
320
339
342
347
383
438
479
502
516
488
428
358
315
307
326
347
341
325
327
341
341
322
314
326
339
331
314
315
332
341
327
311
323
341
334
313
307
324
338
328
311
316
334
337
322
312
326
343
340
322
321
341
355
343
325
329
351
357
344
334
347
365
363
346
345
362
376
364
347
350
365
366
347
335
345
357
346
325
320
335
344
331
314
321
339
339
323
316
330
344
334
314
315
330
339
327
314
319
334
334
317
310
324
336
327
310
312
330
338
324
310
320
338
337
320
312
325
339
330
310
313
331
338
324
311
319
336
333
318
311
326
341
331
314
322
345
358
349
337
349
365
363
347
344
361
375
364
345
345
357
361
347
333
339
350
339
320
317
333
345
332
315
320
337
341
326
315
326
342
337
318
316
330
340
333
328
349
388
424
452
482
527
537
475
388
339
336
342
340
337
349
366
363
344
336
350
365
356
337
337
355
361
348
334
343
360
359
340
333
348
361
352
336
338
355
363
351
338
347
365
364
349
345
360
375
366
351
355
376
384
371
358
369
390
389
377
376
392
405
397
381
383
400
402
383
369
376
389
383
361
353
368
376
363
344
348
364
365
348
337
348
365
362
344
341
356
364
354
338
343
360
363
348
336
347
363
357
338
334
349
358
346
329
333
350
352
334
325
338
353
344
324
322
336
344
330
314
322
339
338
320
312
328
346
342
328
332
351
357
342
328
341
359
353
334
328
339
348
337
318
319
334
338
320
304
312
328
324
305
299
315
329
319
302
304
323
329
311
295
306
324
319
306
313
347
380
396
416
455
507
513
447
372
340
331
316
308
321
344
353
334
314
320
337
340
324
312
324
341
335
315
311
327
339
326
309
315
332
335
317
308
320
337
332
315
314
332
342
329
314
323
342
345
329
323
338
357
351
333
335
355
367
357
346
354
374
376
360
355
365
376
364
345
346
360
361
341
325
334
349
345
325
318
334
346
335
319
321
341
347
330
315
325
343
340
323
320
334
346
336
319
321
339
343
327
315
326
342
338
321
317
331
341
330
311
314
333
336
319
306
318
335
330
312
309
324
332
320
306
309
327
333
322
318
337
356
350
332
330
348
361
350
334
338
355
353
330
320
333
347
339
318
313
327
332
316
300
306
327
332
316
308
318
329
320
304
305
322
326
311
295
307
333
347
346
361
413
469
498
501
468
417
367
323
299
312
343
350
331
323
335
343
332
315
317
334
339
327
316
325
337
331
314
313
328
338
328
310
315
333
336
319
309
321
336
332
336
326
334
354
358
343
333
349
368
361
346
348
367
381
372
358
364
382
382
362
353
365
379
370
348
344
357
360
344
331
340
354
351
333
318
328
344
339
322
322
339
347
333
318
327
345
345
328
321
335
349
339
321
322
341
347
330
318
330
348
344
325
320
334
347
339
321
324
340
344
331
320
331
346
342
322
316
332
345
337
324
331
353
359
344
335
349
369
366
345
341
359
370
356
337
338
354
356
337
322
327
340
334
319
313
329
340
325
306
312
331
330
310
302
317
333
325
307
303
318
331
332
336
366
414
458
481
510
519
473
392
326
306
319
335
335
329
335
346
340
324
318
332
345
334
317
320
333
337
324
311
320
338
338
320
313
326
339
327
311
315
336
342
324
312
324
343
340
323
318
334
346
337
324
331
351
356
341
334
349
371
367
347
344
363
376
364
347
351
366
365
348
334
341
353
344
325
318
334
344
330
314
319
337
337
322
314
324
339
333
317
315
335
344
330
315
321
338
339
322
313
325
341
335
315
313
330
339
326
314
323
340
338
320
312
324
337
330
311
313
332
337
321
306
314
332
331
314
310
328
346
344
333
336
353
358
343
335
349
365
360
344
340
352
357
345
329
334
345
345
326
311
320
336
331
314
309
322
330
318
304
308
325
329
313
301
312
327
321
309
317
351
382
402
428
475
528
531
458
379
345
338
329
319
329
353
362
351
325
334
352
351
335
327
340
353
347
328
327
345
354
341
327
336
352
350
332
325
340
356
348
331
332
352
361
346
332
343
362
363
346
341
357
371
364
349
355
375
383
370
362
373
390
389
374
370
384
394
383
363
364
378
379
362
348
354
369
363
342
336
351
361
349
333
338
357
360
342
331
343
359
353
336
333
351
362
349
333
339
359
361
341
329
342
358
352
336
331
346
356
345
330
336
352
354
337
328
339
352
344
327
324
339
348
335
322
332
353
357
343
338
353
368
360
345
346
362
368
351
339
348
361
354
333
327
341
350
335
313
314
332
337
320
305
313
331
329
311
305
319
330
320
304
308
326
329
313
307
333
371
390
408
439
488
519
472
389
339
325
317
305
310
330
344
333
312
307
322
331
319
304
308
325
329
312
301
314
332
326
308
304
321
333
319
304
312
332
333
313
305
321
338
332
313
314
331
341
329
317
325
345
350
335
328
343
361
356
338
341
361
372
358
343
349
367
365
343
332
342
353
341
320
318
331
336
321
306
313
330
327
310
304
319
333
325
309
311
330
337
320
305
316
337
335
317
311
329
341
330
312
315
336
340
325
310
320
336
331
314
310
328
341
328
310
313
332
336
320
307
320
335
331
311
307
327
342
337
328
337
357
361
343
335
350
366
360
342
344
357
359
342
325
331
348
343
322
310
321
336
330
313
313
330
336
322
308
317
335
336
317
311
324
337
330
317
328
359
384
395
419
469
525
541
481
404
362
344
325
313
332
360
365
345
327
335
352
349
332
327
342
354
344
327
330
347
353
337
323
332
350
350
333
326
341
352
342
328
332
350
351
337
326
341
360
354
336
335
353
366
357
345
352
371
376
363
356
373
392
386
367
363
380
392
380
361
362
375
373
355
346
356
366
355
336
333
347
355
343
328
334
351
349
333
325
338
352
342
332
330
349
353
341
328
335
348
347
329
324
339
351
340
321
322
340
348
334
319
328
344
341
323
318
331
342
332
315
316
334
338
321
308
318
336
329
311
306
327
343
338
327
332
347
351
335
326
342
360
354
337
334
345
350
336
320
324
336
334
315
303
314
329
321
302
301
319
330
318
302
307
328
332
314
303
316
331
319
300
308
341
372
383
403
454
514
542
491
409
356
339
320
306
320
350
361
342
322
327
346
347
334
334
347
341
325
327
345
353
337
320
328
345
344
327
321
337
350
339
318
323
344
348
331
320
332
350
348
331
327
343
358
349
335
339
358
365
353
345
360
379
374
357
354
369
381
367
349
350
364
362
344
331
341
354
347
330
325
339
348
337
321
328
345
345
329
318
332
349
341
320
319
335
344
334
320
326
344
345
328
319
332
346
341
323
321
338
346
330
315
323
341
343
324
315
330
344
336
318
320
335
344
328
314
323
342
340
322
318
335
352
348
335
342
365
372
357
345
358
381
382
364
359
374
385
370
348
350
368
374
352
334
341
356
351
332
328
344
356
343
328
332
349
354
336
324
337
352
343
325
323
345
369
375
381
419
478
516
529
505
457
407
360
324
322
353
374
365
346
347
364
365
346
334
347
363
354
335
334
350
357
342
326
333
350
351
332
323
336
348
340
322
323
341
349
336
323
330
348
348
334
326
339
354
348
333
339
357
364
352
340
351
370
368
353
348
362
375
364
344
344
359
361
340
323
329
342
335
314
309
322
332
320
303
307
324
327
313
300
311
328
323
305
300
315
326
314
299
304
322
324
310
300
311
326
321
303
302
320
328
314
298
303
322
325
309
299
309
325
323
307
302
316
326
313
299
307
324
326
309
301
312
328
320
303
302
320
331
323
316
330
351
353
337
329
343
359
352
333
332
350
355
334
318
327
342
340
319
309
324
334
327
308
309
327
333
318
307
318
334
331
314
310
326
341
330
312
317
340
355
356
363
401
455
488
506
504
471
420
362
321
324
354
374
363
349
354
365
357
339
335
351
361
351
334
339
357
358
342
332
346
364
358
340
340
355
361
347
332
342
362
363
344
334
346
363
357
343
344
363
372
360
348
356
377
382
368
361
377
393
386
370
371
392
399
384
368
375
389
383
362
352
361
368
356
336
334
349
353
334
317
325
344
342
325
320
333
343
331
313
314
332
336
321
308
318
333
327
310
305
320
331
318
301
304
322
324
307
297
308
324
319
300
295
310
320
309
292
295
312
317
303
291
301
316
313
296
291
307
316
303
287
294
314
315
297
290
306
323
316
302
307
329
340
327
313
321
342
346
331
322
336
350
340
320
317
332
337
320
304
309
323
320
303
296
308
324
318
299
297
316
322
309
296
303
321
321
304
296
310
326
328
330
355
407
457
485
508
509
463
387
326
308
325
347
349
340
344
357
355
337
327
340
357
351
333
329
345
356
344
328
334
353
356
341
330
342
359
353
335
334
350
362
350
334
339
356
358
342
336
351
368
364
347
350
371
382
370
359
370
393
396
380
374
391
407
403
384
381
399
405
388
371
377
391
388
366
355
367
381
369
349
347
362
367
353
337
346
362
360
343
335
347
359
351
333
334
352
357
339
326
336
353
348
329
323
339
352
340
322
324
342
346
329
316
326
342
338
319
314
328
337
322
304
306
323
326
310
298
309
325
320
304
306
327
344
335
322
326
342
349
338
329
340
357
353
334
327
342
347
333
319
321
334
331
313
304
316
330
324
308
307
322
331
318
303
310
328
327
309
300
312
327
325
321
342
379
418
448
474
519
536
478
393
340
337
349
351
349
357
372
372
353
340
349
365
363
345
338
351
364
354
337
339
356
362
350
337
349
361
357
339
336
354
368
357
339
343
361
366
353
344
355
372
368
353
352
371
386
377
360
365
386
394
381
372
386
403
400
383
377
392
401
386
367
371
384
381
361
347
357
368
359
339
336
353
359
344
329
335
350
349
331
321
334
347
338
321
322
337
343
329
315
325
339
335
317
309
322
332
321
305
304
320
327
311
296
304
320
317
299
293
306
318
308
291
292
307
312
297
283
290
307
304
286
282
301
318
313
301
308
330
316
309
323
338
331
312
310
325
331
316
299
302
315
313
294
281
292
309
303
284
282
299
309
298
282
290
308
310
295
287
299
312
305
290
299
329
356
362
379
426
479
509
478
414
367
345
322
308
324
354
364
345
328
336
354
356
339
333
346
357
347
332
333
350
354
340
328
338
352
350
336
334
349
362
351
335
340
358
365
351
340
352
373
371
354
352
369
380
373
361
369
390
396
386
379
393
411
410
398
398
414
425
413
398
405
420
420
400
386
397
409
400
382
378
392
400
386
371
379
395
393
376
368
380
393
387
367
364
379
388
375
360
363
375
373
355
349
362
372
360
341
342
358
363
347
330
335
351
349
326
316
327
339
329
309
307
322
326
308
290
296
311
306
289
283
297
308
296
276
280
297
303
290
281
295
314
314
299
296
310
324
317
301
302
317
323
308
291
295
310
306
286
273
282
288
274
259
267
286
289
272
261
272
289
285
269
266
282
292
283
271
274
290
296
288
298
332
377
413
442
483
505
459
372
309
297
307
314
313
312
325
335
326
306
302
317
325
312
300
308
327
327
305
297
311
323
316
300
301
318
326
313
301
312
330
328
313
309
324
336
326
312
315
333
340
328
320
331
348
348
330
327
344
360
355
345
351
372
376
360
353
366
381
372
354
351
366
372
355
338
342
359
359
342
332
344
358
354
335
332
351
365
354
339
347
366
371
357
351
364
379
372
357
357
376
384
371
357
363
381
384
369
360
372
388
381
365
365
382
391
380
368
372
388
388
371
364
378
392
382
364
367
386
396
384
376
392
412
412
395
390
409
426
418
401
402
420
425
408
393
400
413
405
386
378
391
400
384
365
367
384
386
372
360
367
380
372
354
350
364
371
358
338
337
361
379
383
397
444
505
543
555
522
466
411
366
341
349
377
387
371
356
363
375
368
350
346
358
365
351
336
342
358
353
331
323
334
344
334
314
312
327
336
320
302
309
325
322
303
295
308
323
313
297
297
314
321
309
297
304
318
317
302
295
310
325
316
299
301
316
321
306
290
296
310
304
283
276
284
291
278
260
261
278
281
266
253
263
280
276
259
257
272
285
276
260
262
280
286
274
265
275
291
288
273
271
285
296
288
272
276
291
292
277
269
281
297
290
272
272
289
298
285
273
280
298
300
282
272
286
303
299
282
280
298
307
298
288
302
327
333
315
306
319
335
330
314
311
328
338
320
305
311
327
325
307
299
309
316
304
286
288
307
316
304
292
300
317
317
300
294
305
317
310
295
296
315
330
333
344
373
424
462
480
506
499
447
376
325
316
338
358
354
345
352
364
356
340
337
354
366
356
338
340
357
361
348
338
348
363
360
343
341
356
367
358
343
347
365
367
354
347
361
379
374
356
358
377
387
374
361
374
396
400
386
382
398
415
410
396
397
417
429
417
401
406
420
417
397
389
400
412
398
378
375
388
391
376
361
370
385
382
366
355
368
382
373
354
353
368
372
358
343
348
363
358
341
338
348
356
342
327
331
347
346
327
314
324
338
331
314
310
323
333
322
302
305
322
325
307
292
300
318
312
295
293
313
325
315
303
307
323
326
314
305
314
329
325
304
298
307
314
303
285
284
300
301
285
274
286
299
292
278
276
292
301
291
278
280
295
298
281
273
285
300
302
302
317
351
394
430
460
501
498
429
344
302
303
316
320
316
321
338
343
325
310
316
331
330
312
306
319
334
325
308
307
323
327
313
303
314
332
329
312
305
318
329
320
306
312
330
335
320
312
321
337
336
322
323
339
352
344
333
339
359
367
356
348
361
377
372
356
354
371
380
365
350
354
366
365
345
335
344
356
349
330
329
343
350
339
326
333
350
352
334
326
336
350
329
327
348
358
345
330
339
356
355
338
332
345
357
347
331
333
349
354
343
329
337
353
350
334
330
344
354
345
328
329
346
353
345
338
349
367
366
350
350
368
382
371
354
357
373
373
355
341
348
364
358
335
325
335
345
336
318
321
338
341
324
313
323
342
337
321
317
333
342
331
314
317
342
362
366
384
436
496
533
538
495
438
387
347
326
337
368
382
365
351
359
370
361
344
345
360
366
351
334
340
357
356
338
328
342
355
346
329
330
348
354
340
325
332
349
349
333
329
343
352
340
325
329
350
357
346
336
344
362
364
351
345
359
374
371
361
365
378
380
361
347
357
375
368
345
335
344
351
337
318
320
335
336
318
304
312
329
324
303
297
314
328
317
302
309
326
325
308
300
315
329
321
300
298
322
339
326
305
308
324
330
318
307
314
327
325
313
312
325
333
323
315
320
333
329
313
303
316
333
327
313
324
344
351
337
322
332
352
353
340
336
350
363
347
320
318
331
339
323
302
305
319
313
293
289
306
324
315
300
301
317
325
314
303
314
327
322
302
297
320
347
359
363
393
453
504
528
520
471
411
361
332
331
354
378
372
355
357
371
376
362
350
359
378
378
362
352
363
375
366
352
357
375
379
362
350
363
380
376
356
351
367
376
362
349
359
375
374
356
348
367
387
383
367
368
391
403
391
380
391
413
417
400
392
406
423
416
396
392
407
414
399
383
387
399
393
370
361
374
386
372
352
350
367
371
357
343
350
368
366
346
338
350
360
351
335
335
350
354
337
323
331
347
342
323
319
333
341
327
310
312
328
328
310
297
308
322
314
294
290
308
320
308
294
304
325
329
311
299
312
333
327
308
304
319
328
311
287
290
307
308
286
271
275
284
276
252
249
270
283
272
257
267
288
290
277
270
285
301
293
270
267
289
307
309
317
347
399
441
461
484
471
414
341
289
280
303
324
322
311
317
330
323
305
302
317
328
318
301
305
323
327
313
301
312
328
327
310
306
321
335
325
310
313
330
336
320
307
320
338
334
317
314
333
346
338
325
332
353
361
348
340
356
377
374
358
361
379
392
381
365
372
390
386
366
355
365
379
370
350
346
362
368
354
342
348
366
365
346
337
352
366
359
341
342
359
367
352
337
346
364
360
342
336
351
368
358
337
339
356
361
347
333
341
359
355
336
330
345
358
349
331
332
350
355
339
325
335
353
351
333
328
344
359
352
340
349
370
377
360
346
360
383
378
359
358
375
383
366
345
351
370
370
348
334
345
361
356
336
333
351
361
347
330
338
357
361
344
333
348
362
354
334
336
361
383
390
396
435
491
527
538
504
451
405
361
332
343
378
393
378
357
361
376
374
356
348
361
374
366
348
348
367
374
358
342
353
373
371
351
343
357
372
363
345
346
363
369
354
340
349
366
364
345
340
359
372
361
346
353
374
379
366
356
370
389
388
372
368
383
393
382
366
368
380
380
361
346
353
366
359
338
330
341
349
336
320
324
341
343
326
314
324
339
332
312
308
324
332
316
300
304
319
319
302
294
306
321
314
292
291
310
319
304
290
298
320
318
297
289
302
316
308
289
291
310
313
295
280
289
307
306
286
276
290
305
296
278
282
305
317
308
295
304
320
318
305
300
313
326
319
301
298
314
317
301
287
294
309
302
282
278
296
309
300
284
288
307
312
293
282
292
308
304
286
282
297
309
300
297
320
360
394
415
438
479
482
416
338
298
306
324
328
321
327
341
340
321
314
324
341
335
317
316
332
343
330
314
320
337
338
321
312
325
340
334
317
315
332
340
327
316
325
343
343
327
324
338
353
346
332
338
356
364
354
346
358
380
382
367
364
383
399
391
376
379
397
401
382
394
393
389
369
360
371
382
371
353
354
372
374
356
345
358
375
370
350
346
363
375
363
346
350
370
374
355
343
356
372
365
349
345
359
366
351
335
339
357
357
338
325
336
349
342
326
324
335
345
334
315
321
338
337
320
311
325
340
332
309
308
327
335
322
307
317
341
346
338
333
347
360
348
332
336
355
360
348
335
339
348
342
324
318
329
337
324
304
304
321
326
311
295
304
323
322
306
298
313
325
314
300
334
317
315
340
373
391
403
440
493
537
507
427
373
357
346
335
340
365
383
373
349
343
360
370
356
339
343
359
361
343
334
346
357
350
332
331
349
353
337
321
328
349
351
334
322
336
352
346
329
330
349
360
348
333
340
361
364
349
343
359
377
370
354
359
379
388
376
363
374
393
390
370
359
372
386
373
350
350
366
368
351
338
347
361
358
341
336
348
359
349
333
335
352
358
342
328
338
355
351
331
325
340
353
340
320
323
341
346
327
312
320
338
333
314
307
324
336
323
305
307
325
328
312
300
311
326
322
303
299
313
325
313
296
301
319
314
289
272
285
307
305
287
283
298
307
298
285
294
314
319
303
289
297
311
303
283
282
299
306
291
276
283
303
305
288
278
294
309
300
283
285
304
312
297
281
291
308
313
305
310
341
382
413
434
473
499
457
378
322
312
328
337
332
330
342
350
338
320
323
340
346
330
319
331
350
354
329
326
341
354
347
331
337
356
361
344
335
348
363
358
342
340
358
370
360
346
353
374
378
363
353
371
389
383
367
365
384
400
391
378
388
412
416
401
393
406
421
414
396
390
404
411
396
378
384
401
402
381
369
382
396
386
368
369
387
394
380
365
371
391
391
372
361
375
390
381
364
364
378
386
371
357
367
382
377
357
351
365
379
367
347
349
366
370
352
336
345
363
358
334
329
345
357
343
324
327
344
349
333
321
337
359
357
339
334
351
365
354
339
345
363
363
339
326
336
347
340
315
306
318
327
313
293
298
315
317
298
287
300
315
307
286
286
306
310
294
277
283
304
316
313
325
371
432
468
481
475
439
381
326
292
292
315
327
318
310
319
330
318
301
301
313
320
305
293
302
320
322
304
296
310
325
316
296
297
320
328
310
296
306
325
327
310
303
319
336
326
306
309
330
340
327
317
330
352
351
336
332
349
362
356
344
350
372
378
362
350
360
374
368
350
345
357
365
350
335
338
354
354
335
324
338
355
350
332
327
343
353
342
328
337
355
356
340
331
343
358
353
336
333
350
361
344
325
332
351
354
335
323
334
351
347
330
329
347
352
336
321
332
350
350
331
327
344
362
359
343
343
360
368
357
345
354
371
370
352
344
354
362
351
332
329
342
343
324
308
317
333
330
311
305
320
331
320
301
306
324
327
312
299
307
321
318
308
320
354
391
417
447
498
549
524
440
364
344
348
340
333
343
364
371
353
335
336
351
353
337
327
338
353
348
328
325
344
356
343
326
332
349
351
333
324
336
351
346
329
328
346
352
337
322
331
352
352
334
327
344
360
352
336
342
361
368
356
343
354
376
377
361
354
366
380
370
349
345
362
367
349
331
336
351
346
327
320
335
345
333
315
317
336
345
327
314
327
345
343
323
317
336
350
340
321
325
342
346
335
318
328
345
341
322
318
332
342
331
315
320
337
342
323
310
322
338
333
315
315
336
349
341
329
337
358
358
343
336
350
369
364
344
342
357
361
346
329
332
346
342
323
312
323
337
328
309
308
325
333
319
305
314
330
329
312
306
321
333
324
308
320
355
380
395
425
476
529
523
452
380
355
351
337
329
345
370
375
351
334
343
361
358
338
333
349
359
348
330
333
350
354
340
327
338
355
353
335
331
346
357
340
340
363
364
346
337
351
372
367
349
348
365
376
368
354
362
383
387
373
367
379
398
396
379
374
392
403
393
374
375
388
386
366
355
366
376
364
344
343
359
368
353
337
345
363
362
346
337
348
362
354
337
337
354
359
341
323
330
349
350
329
320
334
348
337
316
315
334
343
323
306
314
331
328
306
298
313
328
317
298
301
320
329
318
309
319
339
335
315
309
326
336
322
308
313
326
322
302
287
297
312
304
281
276
292
303
291
275
280
293
295
281
273
284
299
295
276
275
294
301
289
281
300
336
358
371
402
455
510
495
416
346
325
317
300
292
314
338
334
309
299
314
328
319
299
297
316
324
309
295
305
324
323
304
296
310
326
317
298
299
318
325
312
301
306
323
323
306
304
321
334
325
307
311
335
342
329
317
330
348
345
329
327
343
359
350
333
339
360
367
349
334
344
359
351
331
327
339
347
336
318
322
341
345
326
316
331
350
343
325
325
344
353
337
322
330
351
352
334
323
334
349
346
329
329
345
350
337
324
330
347
347
330
322
335
350
342
323
322
339
347
330
315
326
347
351
336
333
351
368
361
343
347
369
379
364
349
357
376
373
348
340
356
364
351
330
331
344
348
330
319
332
350
346
327
319
332
345
336
318
322
339
344
326
309
322
351
365
368
392
451
511
540
536
495
443
393
350
331
345
374
380
363
355
367
378
366
350
349
370
374
357
347
359
376
369
349
348
367
378
363
344
349
366
368
352
342
353
366
358
338
339
358
366
353
343
352
371
368
350
346
364
383
374
356
357
378
388
376
362
370
390
390
370
362
375
385
371
348
347
365
370
350
332
341
357
353
333
326
343
359
347
326
329
345
347
332
320
327
343
341
321
313
329
342
332
312
315
332
335
318
304
313
331
327
309
302
315
325
313
295
298
314
315
296
284
298
317
310
290
289
308
321
314
304
315
335
339
322
313
328
347
340
320
318
335
342
323
304
308
325
323
299
286
300
316
308
286
284
303
312
298
286
293
312
312
293
286
303
317
310
288
290
316
339
345
354
400
461
496
501
465
418
376
332
301
307
341
360
348
331
336
352
346
326
322
338
351
339
319
321
340
345
328
315
326
345
341
322
319
337
350
339
322
326
344
348
332
321
334
353
348
332
331
351
365
355
341
346
365
371
359
352
368
387
383
366
366
385
395
380
362
368
386
385
364
351
360
373
364
343
339
355
362
348
331
337
354
355
336
327
341
356
349
331
329
347
354
341
325
333
354
351
330
322
337
350
340
321
322
340
347
331
315
323
342
340
321
313
326
341
332
314
314
329
334
319
305
314
332
330
311
305
322
341
334
323
331
352
359
342
329
338
358
354
334
333
350
355
338
319
322
339
338
320
306
312
328
321
303
298
315
328
318
301
307
325
327
310
301
314
328
321
301
303
332
357
361
371
416
476
514
507
452
400
367
332
304
311
346
362
345
328
332
349
346
328
320
333
347
339
320
320
337
344
328
313
322
337
335
317
309
321
334
326
311
312
328
334
320
311
324
339
336
319
314
333
350
341
326
330
350
359
347
338
352
372
369
352
348
365
379
369
351
353
369
372
353
337
345
361
356
337
331
344
351
338
324
332
350
350
331
322
335
352
347
328
331
345
357
345
332
338
353
354
337
326
339
354
348
331
329
346
356
342
326
331
348
349
332
321
331
343
337
321
320
334
341
326
310
317
335
332
311
307
324
343
337
325
328
347
354
341
335
349
362
355
337
336
354
360
343
324
328
345
345
324
308
317
334
329
307
301
318
331
320
302
305
321
325
311
300
310
328
323
301
299
328
357
367
383
432
494
536
516
446
384
356
334
310
314
346
366
352
330
333
350
350
334
358
355
350
332
330
347
355
340
324
332
351
350
331
325
337
351
342
326
327
346
355
343
330
339
360
362
348
342
359
375
368
355
360
381
390
375
362
374
393
393
377
375
392
406
396
376
377
393
396
378
361
367
381
375
355
344
358
368
357
341
342
358
361
343
331
341
359
355
335
329
344
354
340
323
327
344
346
328
318
329
344
338
321
322
337
343
330
315
320
337
339
322
311
322
337
331
311
309
326
335
321
302
309
328
332
318
312
329
348
343
329
329
345
354
342
326
333
351
351
331
318
328
341
332
311
305
317
324
310
293
301
319
318
300
293
307
323
315
299
300
318
325
310
296
304
325
331
332
349
392
444
477
499
517
493
431
362
321
320
344
358
351
347
356
362
350
332
337
358
363
345
332
342
358
354
336
331
346
362
349
329
334
351
354
338
328
341
357
353
336
335
351
360
348
335
346
365
367
352
345
357
375
371
356
357
377
389
379
364
371
392
396
379
369
381
394
386
365
359
372
376
359
343
349
361
361
343
334
349
362
351
332
333
351
357
340
325
334
353
352
332
325
340
354
341
321
323
340
346
330
316
323
339
338
318
311
322
334
324
306
308
322
325
309
295
307
324
320
298
294
310
322
312
293
295
313
318
307
300
316
338
337
320
314
330
344
335
318
321
340
342
321
306
317
330
324
304
299
310
316
306
291
297
316
316
297
288
301
319
314
295
295
315
324
311
295
300
322
333
332
343
383
437
469
484
497
476
420
356
313
311
337
354
346
338
348
359
349
331
333
350
357
344
331
338
355
356
339
333
347
361
352
334
335
352
361
347
334
345
363
358
339
335
353
370
362
345
351
371
378
362
349
364
384
382
368
368
385
397
390
377
384
403
408
391
380
390
407
400
375
371
384
389
373
353
357
376
379
361
349
360
374
365
346
344
363
370
353
339
347
366
369
351
341
352
367
359
340
338
355
363
350
334
339
358
356
336
327
339
351
344
324
322
339
345
328
315
324
341
336
316
308
324
339
330
309
308
327
333
317
302
310
329
332
320
318
334
349
340
320
325
347
353
336
324
335
348
340
319
312
324
335
322
301
302
317
320
305
292
298
316
314
296
291
306
318
307
290
294
312
314
297
287
304
335
348
353
384
445
498
520
482
423
376
340
307
294
317
349
349
330
324
339
347
338
323
329
348
345
325
318
333
348
340
322
321
338
345
333
320
328
346
347
332
326
338
352
346
328
332
352
358
346
335
343
359
362
349
346
364
379
374
361
366
387
392
378
367
379
400
398
378
373
386
396
381
359
365
381
381
361
346
354
370
365
346
339
351
361
350
334
340
355
357
340
332
340
352
345
331
329
342
348
334
317
322
341
343
325
315
325
337
327
310
310
325
333
320
304
311
327
326
309
300
310
323
316
300
299
313
316
300
288
294
311
312
297
296
316
332
323
305
305
324
336
326
310
316
336
333
311
303
314
324
314
295
292
304
309
292
278
286
305
304
289
285
299
309
300
286
292
309
314
298
284
294
318
329
332
351
402
459
488
504
494
449
384
330
306
315
341
350
340
335
344
349
336
322
329
349
350
332
322
333
347
341
324
324
340
349
336
322
330
349
352
339
330
339
352
348
332
332
349
357
347
336
345
364
366
354
351
365
380
375
361
363
384
392
383
374
381
399
402
388
380
391
402
393
376
376
388
390
371
355
362
375
371
354
348
363
371
362
344
346
363
367
353
339
349
367
364
347
341
354
366
356
338
341
356
357
341
331
342
357
349
334
330
342
351
340
324
329
345
346
329
315
325
342
337
316
311
324
334
322
305
312
328
330
318
317
334
349
343
325
324
346
357
344
325
333
351
348
323
314
326
336
322
302
302
314
304
296
305
317
315
299
293
307
317
310
293
296
313
315
300
288
298
324
340
344
367
418
469
498
488
438
387
345
308
293
311
342
345
325
317
330
340
328
313
316
331
336
323
311
321
338
336
317
311
327
339
330
316
321
338
341
328
317
327
343
339
324
324
339
351
339
327
337
354
357
346
340
352
368
365
350
352
370
381
372
360
370
389
390
371
361
375
391
380
357
353
367
371
358
343
350
363
357
340
335
347
364
356
338
338
357
365
351
338
348
365
360
343
338
352
366
356
338
339
355
358
343
328
333
345
344
330
327
339
348
335
315
318
334
339
326
315
320
332
327
311
308
322
338
334
324
328
345
349
333
322
336
354
348
329
325
342
351
335
315
313
328
335
317
301
309
321
312
292
292
312
321
305
288
295
315
318
302
292
305
319
313
294
295
319
342
351
363
409
475
518
526
478
414
366
326
293
290
316
337
326
305
308
326
327
310
302
312
328
324
311
311
328
336
320
305
312
331
332
317
312
325
339
329
312
316
335
341
326
315
330
349
346
329
326
353
Pomiar: Izabela Czas badania: 35.98 sekund
