243
169
157
158
169
178
177
173
178
187
190
187
184
188
195
195
191
193
203
206
196
186
187
191
188
174
168
173
176
174
170
168
176
178
174
175
180
181
176
168
168
171
173
165
156
156
164
169
161
156
162
171
171
161
162
170
180
177
176
176
183
184
171
172
203
257
304
332
360
402
444
447
385
312
254
207
182
183
198
214
216
213
217
232
244
242
236
240
255
262
256
252
260
276
279
274
278
285
290
292
296
301
313
320
320
322
334
347
349
346
350
364
375
375
371
372
384
392
389
387
393
402
400
393
391
396
399
388
377
372
369
357
337
324
320
315
303
287
281
282
281
266
256
257
262
263
257
254
256
263
261
250
244
252
258
252
243
241
248
253
246
239
242
251
249
239
242
249
251
243
238
243
253
251
244
244
252
260
258
251
249
256
260
258
256
263
279
282
275
272
279
291
294
289
290
300
310
306
301
307
321
323
318
320
332
345
343
335
339
352
360
356
354
360
368
367
360
357
364
369
359
346
347
359
364
356
355
364
374
376
372
373
385
397
394
387
391
405
408
400
402
439
496
543
571
598
638
664
656
602
534
479
433
406
406
421
435
438
433
433
439
444
439
432
434
441
445
439
431
435
445
446
441
442
447
452
448
443
447
456
459
453
448
453
466
467
460
459
470
476
470
463
469
484
488
479
473
482
496
491
483
481
489
489
478
468
466
468
458
437
424
418
416
404
388
379
386
392
379
367
367
375
379
369
363
369
378
376
369
367
374
382
379
375
380
391
394
384
378
386
395
394
384
384
393
398
389
383
389
396
394
384
378
386
391
385
376
377
386
385
373
371
377
383
379
370
368
376
383
377
374
378
385
385
376
373
379
389
388
378
376
386
396
396
390
393
405
409
403
399
406
418
420
409
403
409
416
410
398
395
404
406
396
392
400
409
403
392
389
397
404
398
392
396
407
411
402
394
395
403
420
453
498
546
582
603
626
643
611
543
469
412
393
398
400
400
403
414
420
413
411
418
428
428
421
420
429
435
432
425
430
444
445
434
431
437
448
449
441
438
450
461
458
452
456
466
470
464
465
474
486
490
487
488
500
514
514
511
519
533
540
533
525
533
537
530
519
512
510
505
490
477
468
465
461
446
437
439
442
438
429
427
434
439
433
425
426
435
437
430
424
428
435
435
428
428
436
439
434
431
434
439
436
429
426
429
435
432
423
421
427
427
415
407
412
422
420
409
403
411
419
414
403
399
405
406
399
392
396
402
399
388
382
389
397
391
378
371
374
378
371
364
365
370
366
354
353
363
372
369
360
364
377
384
373
366
375
391
390
375
367
373
377
367
359
358
367
365
350
340
346
354
353
345
338
343
348
345
341
341
346
349
342
336
334
347
373
408
452
499
537
560
580
570
516
445
374
326
320
336
344
336
333
345
353
347
338
338
345
346
338
336
341
351
349
343
342
351
355
349
344
348
357
358
351
351
361
367
365
359
357
365
371
368
367
373
381
382
381
383
389
399
396
388
388
397
400
397
396
404
410
402
389
381
384
386
370
352
344
345
342
331
319
317
326
328
320
317
320
322
314
308
308
316
320
313
308
314
326
329
318
313
321
334
332
324
326
336
336
326
321
328
335
331
324
321
326
331
320
309
315
325
325
314
307
315
322
321
313
314
320
326
322
311
313
325
327
320
315
320
329
327
320
322
330
334
334
334
338
348
347
340
340
353
362
358
349
345
350
350
344
339
343
349
345
337
333
343
353
351
343
345
353
354
344
339
349
360
358
343
336
343
361
391
431
480
525
556
580
594
566
501
432
366
325
326
343
348
346
352
364
368
361
357
363
374
373
363
358
367
372
367
359
360
373
378
367
360
369
378
370
366
379
387
386
382
385
398
402
396
395
405
419
420
418
424
439
447
445
442
450
465
468
459
453
457
464
460
444
434
430
425
412
397
392
398
397
386
378
381
386
384
375
375
385
390
383
376
380
392
397
389
387
395
404
401
395
397
409
415
408
401
406
416
411
398
393
401
413
411
401
397
404
404
394
388
392
401
402
393
390
394
398
393
382
384
393
394
386
383
392
399
394
381
375
383
392
389
387
392
406
410
400
395
404
417
413
401
399
415
424
414
400
395
404
411
403
394
398
409
409
401
398
405
406
401
396
396
407
409
400
390
388
407
441
479
522
565
600
625
643
619
558
488
422
380
377
392
399
393
390
399
403
394
388
391
399
401
392
388
392
398
397
389
382
387
393
385
378
381
387
388
378
375
384
391
384
380
380
392
397
391
390
398
409
410
403
406
419
426
420
415
423
434
439
430
421
418
420
417
408
397
392
387
371
356
353
357
351
335
330
336
344
343
332
327
333
340
339
329
332
340
341
334
333
340
349
348
336
334
348
359
354
345
347
360
365
357
350
355
362
361
358
358
365
369
359
349
351
364
364
357
356
362
370
362
352
351
360
366
362
359
359
365
365
355
352
360
365
361
357
364
377
383
380
378
382
389
391
387
384
389
393
384
377
374
379
377
366
356
359
366
368
364
359
361
366
361
352
350
360
366
361
358
362
366
363
357
370
416
474
507
528
552
587
599
551
482
427
385
357
349
358
374
386
384
376
376
389
396
393
389
396
408
408
400
399
410
418
414
404
403
415
415
404
395
399
404
398
387
386
390
389
384
371
372
382
383
377
377
385
401
399
391
392
398
406
406
401
406
418
420
412
402
398
398
388
369
357
356
355
343
324
317
320
320
311
303
305
309
300
289
291
302
306
299
293
297
305
306
298
297
304
312
311
308
310
321
324
316
309
313
321
322
318
319
328
334
326
314
313
326
332
325
317
321
330
332
328
325
333
337
328
321
323
335
340
332
324
325
331
332
331
333
340
348
343
337
339
350
356
349
342
342
343
338
329
327
332
331
319
311
314
321
319
313
312
320
325
320
313
316
327
330
321
312
315
323
318
320
351
406
457
481
498
522
547
518
441
367
315
288
277
277
281
289
296
290
279
278
287
293
285
275
277
287
289
281
277
284
292
291
288
286
296
302
299
293
299
310
312
300
296
309
318
311
304
307
319
323
317
310
314
326
332
328
324
331
338
331
326
327
334
333
316
302
299
298
289
270
257
257
253
237
225
225
230
227
217
210
214
223
225
215
207
212
222
226
223
225
231
233
229
226
232
244
246
240
238
247
253
247
238
241
251
254
246
237
240
253
252
239
230
237
244
235
224
226
236
236
226
218
222
226
224
217
218
228
226
219
218
224
234
242
240
238
245
252
248
244
251
257
253
239
230
233
240
232
217
210
218
227
221
211
207
217
223
215
209
210
217
223
216
215
224
228
217
211
238
291
341
370
392
429
468
463
394
319
269
227
198
192
207
227
233
226
221
224
233
237
231
226
234
244
243
238
242
249
253
252
251
256
266
266
263
262
270
276
274
270
273
284
285
279
278
287
299
298
293
296
310
321
320
319
329
343
346
343
343
349
360
356
345
343
345
339
325
308
301
305
300
283
272
274
279
270
259
262
274
279
269
259
266
278
278
269
269
280
293
288
279
283
294
301
297
290
299
313
313
306
303
308
309
311
308
309
317
319
311
304
307
314
318
309
305
310
315
312
306
308
316
319
313
309
318
329
334
332
333
347
354
347
339
348
362
365
356
350
354
360
355
341
334
344
349
336
326
329
339
342
339
339
346
353
353
345
346
362
370
363
354
352
363
385
420
464
512
554
579
595
566
497
428
372
351
361
371
369
365
372
382
380
373
372
378
389
387
386
390
399
401
396
394
405
414
412
404
405
418
421
413
410
418
430
430
419
415
426
438
436
431
432
445
454
450
450
464
478
480
472
473
484
493
490
482
481
490
492
476
458
451
449
442
426
417
418
417
405
394
394
401
401
393
386
393
403
403
395
394
402
411
409
406
412
422
423
417
415
424
434
429
420
423
434
440
437
431
435
444
444
433
427
436
445
440
431
429
440
447
438
429
431
440
444
437
436
444
454
451
445
450
460
463
458
454
462
472
474
470
469
477
483
479
471
476
486
487
473
466
470
475
468
455
446
450
461
455
445
442
453
459
456
453
453
460
457
452
453
463
465
453
442
447
481
524
558
587
619
657
665
663
632
574
514
450
416
422
448
456
448
440
443
452
452
445
443
453
462
458
452
454
461
463
460
454
458
466
463
456
453
463
469
459
451
457
466
468
459
459
470
478
473
466
471
486
494
488
484
494
508
512
505
501
509
516
508
499
502
504
499
482
465
457
455
447
431
426
428
424
411
400
402
410
409
396
388
396
405
402
397
392
397
399
394
385
391
401
405
399
393
400
406
402
395
396
407
413
407
399
400
406
404
394
391
398
407
405
396
392
402
406
397
391
395
404
405
399
394
404
410
402
395
396
404
407
397
388
392
401
400
390
382
385
396
396
390
389
396
399
395
392
397
408
412
405
397
396
398
393
384
381
380
380
374
369
370
374
371
362
359
362
363
351
343
348
354
346
331
319
315
314
307
312
345
392
430
450
473
508
530
481
396
326
278
253
244
247
254
263
267
264
258
263
272
274
262
247
246
257
258
246
241
247
255
249
240
241
250
249
241
234
244
256
252
244
245
257
265
259
256
260
273
280
272
272
284
294
292
289
294
311
320
316
308
311
321
320
309
299
300
300
290
275
269
271
266
252
239
242
252
256
247
243
253
259
254
247
252
262
268
264
263
267
277
279
272
271
282
291
286
278
281
291
297
290
287
296
305
303
296
299
310
314
307
300
304
314
316
310
308
319
329
323
315
318
329
336
329
323
326
337
342
337
334
344
351
349
343
344
355
363
358
354
361
373
379
376
379
388
392
384
374
376
385
388
376
366
371
379
376
368
368
379
387
381
372
372
381
388
382
376
383
391
386
374
371
399
448
488
521
558
596
630
641
597
528
474
423
385
375
393
411
413
410
414
423
427
421
418
425
435
437
428
427
439
445
437
432
438
450
451
443
439
447
458
457
450
453
463
471
470
467
474
486
487
481
484
496
504
504
499
505
518
526
519
516
523
534
536
527
520
522
521
507
494
487
486
481
464
454
455
460
456
444
439
444
449
444
438
437
445
449
445
440
445
452
453
447
447
455
461
453
448
455
467
469
458
454
460
469
463
454
453
462
469
465
455
455
463
468
462
455
455
462
461
454
455
463
467
461
453
453
463
464
453
449
455
462
459
451
451
458
459
452
450
460
470
472
463
461
473
486
480
471
470
480
486
478
466
466
474
473
461
450
454
459
453
444
440
447
451
440
431
435
444
441
431
426
430
438
436
427
419
425
449
485
525
567
608
637
654
658
627
567
502
439
408
414
428
430
428
429
435
433
424
424
435
438
432
425
429
434
437
430
426
434
444
438
428
427
434
437
431
425
427
436
440
431
425
431
439
435
431
434
443
447
442
440
447
460
466
464
459
464
473
474
465
458
461
460
448
432
428
427
418
395
380
380
379
370
353
344
350
356
351
344
341
346
348
338
334
340
348
345
335
334
346
354
349
343
348
358
362
355
350
359
368
367
358
357
364
363
355
347
346
349
346
335
329
332
334
322
309
306
314
316
303
294
302
295
286
282
286
289
282
277
279
285
289
278
270
272
278
272
256
247
254
261
254
252
261
278
286
275
264
265
276
278
276
270
271
271
260
248
241
240
237
226
214
215
222
217
204
200
203
205
199
193
198
208
209
200
198
201
205
199
206
244
306
363
393
413
446
479
456
382
312
266
245
240
240
250
264
275
276
270
276
291
296
293
293
304
311
311
308
313
326
335
332
332
339
351
358
353
351
361
376
381
379
383
399
410
412
411
421
435
441
440
442
453
467
475
472
476
490
501
499
499
507
519
519
509
506
511
516
505
488
479
479
479
472
464
464
468
466
463
461
470
479
474
461
463
479
488
479
473
480
491
494
487
485
500
513
509
502
504
512
518
518
519
524
529
526
521
523
530
534
528
521
522
534
536
525
518
525
536
535
524
523
531
537
532
526
528
536
537
531
524
528
539
537
527
531
543
548
541
534
538
553
561
551
545
552
560
560
558
554
554
555
548
538
539
544
542
533
529
533
534
527
518
516
525
532
522
509
508
520
525
519
515
520
518
509
517
554
607
647
662
665
667
668
668
665
618
530
476
463
474
492
503
503
496
491
498
510
508
498
497
510
520
514
504
507
520
530
523
509
509
520
520
509
506
512
521
515
506
511
523
526
517
513
520
534
536
533
536
549
557
557
555
559
571
578
578
574
579
584
576
557
550
560
557
524
500
501
498
478
452
425
419
401
345
301
304
339
357
347
339
337
365
380
386
409
458
513
562
606
646
665
667
668
669
670
670
670
671
671
671
671
671
671
671
671
671
671
671
671
670
670
670
670
670
670
669
669
668
668
669
669
669
669
670
670
670
670
671
670
670
671
671
671
671
671
671
671
671
671
671
671
671
671
671
671
671
671
671
671
671
671
671
671
670
670
669
668
667
653
588
536
508
485
464
450
440
418
391
372
371
366
340
317
326
361
396
422
439
461
492
503
454
377
315
258
212
193
206
230
232
221
214
216
222
221
215
216
231
233
229
223
221
226
227
220
213
213
217
218
213
212
212
207
197
194
200
209
199
186
188
204
211
200
189
188
200
210
212
207
210
223
229
226
221
223
231
216
225
236
241
238
218
195
183
184
181
168
155
152
151
146
140
142
154
162
147
130
130
144
151
149
148
157
157
147
130
119
128
141
151
167
199
236
256
252
256
273
287
280
268
266
270
264
247
228
224
226
218
206
200
205
213
205
195
199
208
211
204
197
200
208
207
198
194
198
197
188
178
180
185
184
174
171
183
191
186
180
178
190
199
189
174
181
205
213
201
195
203
207
199
192
191
194
197
196
192
196
202
203
194
190
201
212
207
199
198
207
214
207
191
184
181
183
201
236
281
310
317
321
324
306
264
210
160
134
135
141
143
149
165
177
175
170
176
191
206
206
209
217
229
240
237
241
253
263
259
252
256
262
284
295
292
298
312
316
322
337
355
361
357
351
359
370
372
366
367
387
420
446
461
483
512
536
540
533
535
544
544
529
513
507
500
482
452
437
438
433
417
404
407
417
415
407
404
411
423
420
406
404
410
415
409
399
399
402
393
379
367
375
386
388
380
383
396
396
383
367
361
355
345
336
346
361
372
373
371
378
382
400
417
427
440
462
481
491
501
524
539
539
534
544
555
556
545
543
553
566
565
552
538
548
565
565
554
549
553
558
554
548
547
550
554
542
530
524
518
507
503
508
513
509
502
496
500
505
503
493
493
505
508
502
494
492
493
486
488
511
562
614
650
663
666
667
667
663
603
510
453
433
432
441
459
469
466
456
452
462
473
471
462
463
474
479
473
470
477
484
483
473
477
488
494
486
480
485
493
492
486
484
492
497
493
489
492
501
512
508
499
511
528
519
521
534
544
540
528
529
534
541
536
525
524
524
513
495
487
486
484
470
458
455
459
459
446
440
445
454
454
445
444
451
459
452
445
448
456
457
448
444
451
456
457
452
447
452
457
451
445
449
457
459
449
440
444
452
446
439
439
447
452
445
441
442
447
447
441
439
444
456
453
444
446
456
465
458
454
463
477
481
475
465
473
491
494
482
473
473
476
469
458
457
466
459
449
443
446
454
450
445
444
450
454
447
442
449
461
457
445
440
441
453
482
520
564
607
637
658
665
664
641
570
488
435
421
433
446
446
446
454
458
450
444
450
461
462
455
453
458
467
463
457
457
465
469
460
454
465
477
471
462
463
477
485
479
472
475
489
494
489
486
497
513
515
508
511
521
530
527
522
530
545
545
532
525
533
539
535
521
510
504
500
486
475
474
476
464
447
439
445
454
449
440
438
447
451
446
437
436
449
449
441
438
445
453
453
446
447
453
459
452
444
451
463
465
455
451
458
467
464
456
453
459
468
462
452
452
460
461
456
450
454
461
454
446
447
454
453
444
438
443
456
459
452
450
461
472
467
455
460
474
477
464
455
457
463
459
446
442
448
452
446
438
438
447
449
437
434
443
455
452
442
439
445
456
453
443
440
454
489
528
567
609
646
664
665
664
639
572
489
430
416
431
442
438
437
445
449
443
434
437
446
452
445
438
444
457
460
462
447
455
467
464
457
462
470
478
472
465
471
481
479
475
475
484
493
493
486
489
505
513
506
505
513
520
521
516
519
527
534
534
526
527
536
534
515
499
496
496
486
464
453
455
459
448
439
437
444
443
439
432
432
441
444
441
441
449
456
449
441
450
461
463
458
456
461
471
473
468
468
477
483
477
469
475
487
485
473
466
476
484
477
463
464
476
480
474
468
473
483
483
473
468
477
488
485
475
475
487
494
489
483
486
496
499
496
498
506
512
506
500
504
515
516
502
487
496
507
500
482
479
484
488
480
469
470
481
488
482
476
478
485
485
476
475
483
491
486
470
470
503
550
590
625
657
666
667
667
664
625
546
473
435
443
469
481
479
478
485
490
489
486
486
496
502
497
487
492
508
512
504
498
502
514
515
505
503
513
519
512
506
506
512
514
510
507
518
530
528
520
520
532
542
539
534
540
553
557
550
544
549
556
554
545
539
540
538
521
502
496
499
492
474
460
461
467
460
448
443
447
450
443
437
439
445
447
443
438
444
449
448
439
436
446
452
446
442
443
450
452
444
439
443
448
445
440
442
449
450
441
436
440
448
447
438
439
448
453
446
438
439
449
457
450
442
447
458
456
449
447
457
469
468
456
454
466
476
473
471
475
486
487
482
482
494
504
494
480
484
495
496
485
478
480
484
482
471
470
481
489
484
473
476
486
489
484
477
484
493
490
482
479
484
501
534
578
628
663
666
667
668
668
666
641
549
481
471
491
504
505
506
510
510
502
499
510
519
514
503
500
513
523
514
497
497
508
510
502
500
506
512
505
495
497
509
514
505
498
498
509
512
505
503
511
521
519
512
513
526
536
532
526
530
540
538
526
520
526
533
525
508
497
492
482
465
456
453
447
434
421
417
422
421
413
406
403
409
409
401
400
404
410
409
404
403
412
417
424
411
414
419
421
418
417
422
429
426
418
417
426
431
423
415
416
425
428
421
414
417
422
417
410
416
425
427
420
415
419
427
425
415
412
419
429
426
418
417
428
432
425
421
423
433
432
426
425
431
437
436
431
435
447
456
453
450
454
464
467
464
465
472
477
468
456
454
458
458
453
444
447
453
453
446
443
447
452
449
443
446
455
455
447
441
447
457
452
440
448
488
542
585
612
643
665
666
664
639
576
507
457
470
465
475
474
469
473
482
484
475
469
476
490
491
481
483
496
503
497
494
496
506
514
511
509
517
525
521
513
517
528
536
530
525
530
546
551
544
547
559
569
570
570
576
589
597
591
589
596
606
606
601
599
601
604
593
576
568
568
564
552
542
541
546
542
529
526
533
540
538
528
533
543
544
541
538
545
556
553
548
545
557
566
566
560
559
565
573
572
565
570
579
579
573
573
583
591
587
579
579
584
587
586
583
587
593
593
586
586
593
604
598
590
588
598
601
596
592
597
604
600
591
594
606
609
600
592
595
604
606
602
600
607
612
610
604
602
610
616
615
613
615
619
630
635
633
634
642
644
636
636
645
648
639
631
628
626
622
617
609
606
610
607
603
602
604
604
597
590
590
593
596
589
584
585
587
577
578
610
658
666
668
669
669
669
669
669
668
666
639
571
533
540
566
580
573
565
572
581
580
572
566
575
584
580
572
574
582
584
577
571
574
585
585
574
570
576
586
584
578
579
587
591
587
582
590
600
601
599
601
608
616
617
615
618
628
630
625
619
624
636
631
622
618
621
620
608
592
585
584
579
566
558
560
563
558
549
544
552
555
550
543
545
558
566
558
553
558
565
562
559
559
565
568
560
556
560
566
567
558
551
558
569
570
558
553
559
567
561
548
553
563
561
554
551
560
571
565
552
552
563
567
561
553
556
563
559
552
555
557
562
559
550
548
555
560
556
554
560
573
573
560
555
563
573
570
563
557
559
559
554
546
544
546
539
534
529
531
535
529
516
515
526
532
526
520
523
532
531
521
515
516
516
525
555
604
653
665
666
667
668
668
667
657
576
505
483
490
504
515
522
521
508
501
505
514
514
505
500
506
510
504
499
505
515
514
503
498
503
511
508
500
501
509
516
516
514
520
528
532
530
529
535
546
548
544
550
567
577
571
565
570
584
590
588
583
588
594
585
571
567
568
560
543
527
523
524
521
502
487
488
499
497
486
481
485
489
486
482
490
497
494
487
485
491
501
496
491
492
499
503
497
489
494
507
509
502
494
498
504
499
492
499
508
508
501
495
500
510
510
502
498
505
512
508
504
509
517
518
510
506
509
514
512
505
503
513
526
520
507
508
520
524
520
520
530
541
540
532
533
545
549
542
531
532
544
547
537
526
527
533
532
519
517
523
529
523
518
523
526
528
523
520
527
536
531
522
511
524
556
592
630
662
666
668
668
668
669
666
645
558
503
506
527
530
525
531
541
542
537
535
539
545
545
537
539
551
555
543
533
542
551
552
542
540
551
558
552
548
553
564
568
561
556
564
575
577
574
576
585
596
594
589
596
611
621
615
612
619
630
631
620
615
622
628
618
601
590
588
579
564
553
552
549
539
528
526
530
530
525
516
520
526
524
513
536
528
522
519
525
531
524
521
523
536
542
536
531
536
544
536
525
529
538
545
533
522
526
536
539
529
526
534
541
534
522
523
534
539
535
529
533
540
539
537
536
540
543
539
533
537
546
546
541
539
547
557
556
548
544
555
563
561
555
553
558
556
545
540
544
550
541
528
524
530
531
524
521
526
535
539
530
521
526
538
541
532
527
534
538
527
528
560
613
659
665
667
668
669
669
669
667
661
595
519
494
509
538
542
543
537
539
547
547
540
537
544
551
544
537
540
550
550
544
541
545
552
550
543
545
554
559
554
547
549
566
574
568
564
572
583
585
575
579
595
604
601
601
607
615
616
611
609
613
619
621
612
605
605
600
586
573
567
565
557
546
537
537
539
529
515
516
528
535
524
513
519
527
524
516
517
524
529
528
524
526
537
542
536
529
530
536
537
530
526
533
543
538
531
534
540
540
533
531
536
541
536
528
526
531
540
528
528
536
540
536
533
534
538
540
535
537
549
555
552
547
553
563
566
562
558
559
563
556
548
545
549
546
534
526
528
535
536
529
527
533
543
544
536
533
542
549
544
538
542
550
544
532
547
592
646
664
666
667
668
669
669
668
663
602
516
479
488
514
528
526
520
519
525
533
529
524
526
533
535
528
526
532
541
541
531
527
536
543
537
528
534
542
542
535
529
538
549
546
539
540
548
555
556
556
561
569
575
572
570
580
592
592
584
585
594
598
588
578
580
584
575
558
545
542
543
533
520
513
514
513
503
498
505
513
508
501
502
514
519
512
507
509
520
525
520
513
518
523
524
517
512
518
523
517
509
508
518
521
508
500
512
518
513
503
500
504
513
508
501
505
516
517
508
503
510
519
519
512
514
523
531
528
524
528
534
533
528
527
539
544
535
521
517
520
518
507
494
495
505
501
488
485
494
497
491
483
483
491
496
491
485
487
495
495
485
477
500
546
594
625
650
665
667
667
666
658
601
515
456
444
465
484
483
472
472
481
488
485
476
479
489
488
480
477
484
490
487
483
486
493
489
481
476
483
494
497
493
491
499
503
498
495
501
512
520
520
520
527
539
540
536
540
552
563
560
554
558
567
569
561
555
559
561
549
531
521
520
515
502
487
485
488
486
472
463
475
485
479
468
468
478
487
481
473
478
487
488
484
479
486
498
497
487
484
490
495
492
486
489
498
501
494
485
492
500
495
485
487
500
502
492
482
487
494
492
485
483
488
491
486
483
489
495
494
485
478
483
490
494
489
486
494
502
498
490
493
502
505
498
492
495
502
499
485
475
478
482
475
464
464
474
478
472
466
470
478
479
471
470
477
481
480
474
476
478
475
476
501
550
600
632
649
664
667
667
661
604
519
472
462
465
472
481
491
491
484
481
488
496
491
486
493
503
509
508
504
512
522
524
521
523
532
540
538
536
542
551
557
556
555
562
573
573
569
576
591
598
594
591
601
617
621
618
620
632
641
639
631
631
641
644
634
623
620
622
610
589
577
580
576
564
552
548
553
553
546
540
543
549
546
537
533
539
547
545
536
537
545
550
543
540
545
551
548
541
542
549
553
548
538
538
546
546
537
526
531
541
537
521
515
520
524
520
513
510
517
518
508
499
500
504
500
491
490
499
505
496
484
489
500
505
498
492
495
502
501
492
491
500
507
507
504
508
517
515
507
505
517
520
506
492
495
502
503
494
485
486
491
487
477
474
484
490
485
476
472
479
485
479
470
475
484
485
473
460
476
520
563
595
628
662
666
667
666
659
606
524
463
449
471
489
490
486
489
500
504
497
493
494
500
501
499
497
501
509
506
500
503
514
514
502
498
505
512
512
506
500
504
510
509
506
509
517
521
515
509
520
536
539
529
528
540
550
546
538
541
551
552
542
539
546
550
537
516
502
501
500
489
472
465
468
465
453
446
453
458
452
439
436
445
453
447
440
444
452
453
448
444
450
456
452
446
448
456
458
452
446
449
455
456
450
445
449
451
446
439
441
449
452
441
433
436
446
445
435
430
438
444
441
430
428
434
437
428
422
428
440
435
425
420
427
437
434
422
421
430
433
427
420
423
436
438
431
432
445
454
448
437
442
456
463
456
443
442
446
445
435
426
430
437
429
416
417
424
425
420
414
415
422
421
411
409
420
428
423
412
408
417
430
452
492
541
582
608
628
649
634
567
487
423
386
385
397
400
400
404
411
413
407
404
410
417
411
400
400
410
411
405
403
413
419
414
408
408
420
430
426
419
419
424
426
421
419
426
434
434
424
423
433
444
440
433
439
456
464
457
452
460
467
467
461
460
470
475
463
452
452
454
444
430
419
420
426
417
411
415
421
417
410
418
429
432
426
425
435
445
444
437
441
454
459
452
444
457
471
470
463
466
475
480
474
464
470
477
482
473
466
475
483
479
470
470
482
487
483
476
478
487
489
482
475
481
492
492
485
483
490
497
487
476
478
487
492
484
475
481
488
484
474
470
479
490
485
477
483
497
501
494
487
495
506
507
498
494
499
500
494
484
483
485
483
476
471
473
474
469
462
462
473
477
467
456
460
470
470
463
453
456
465
477
507
554
596
626
648
663
664
658
603
522
450
424
427
430
427
433
447
447
437
430
433
442
441
432
426
433
439
433
424
424
433
435
426
421
434
440
434
427
426
436
444
439
433
437
449
452
446
446
454
461
460
459
463
474
485
487
481
483
494
501
494
487
493
500
497
482
471
468
465
451
433
428
429
419
407
399
399
405
406
397
394
402
408
401
391
393
406
412
405
403
411
423
424
417
419
432
442
438
433
438
450
453
447
445
452
464
460
452
451
464
467
459
454
459
467
463
455
449
457
465
464
457
457
466
463
453
454
463
470
469
461
457
464
473
469
461
463
473
477
468
463
467
475
474
464
462
470
474
466
459
461
469
471
466
466
478
493
495
484
478
487
502
505
495
491
492
490
481
475
475
479
473
462
454
458
464
459
450
453
463
464
456
449
454
462
465
460
461
465
465
457
464
505
561
605
631
652
665
666
665
646
580
508
466
449
450
466
479
481
471
463
470
476
471
465
468
477
481
475
468
472
482
483
478
476
480
486
481
472
473
484
488
484
479
480
487
493
495
497
505
513
510
506
510
522
531
534
535
543
554
551
539
536
545
556
551
534
527
534
532
515
498
490
488
473
456
448
454
453
441
432
431
438
441
436
429
433
439
442
442
445
454
459
454
452
458
470
473
466
463
471
474
473
465
467
479
484
473
464
467
477
475
466
462
469
476
473
467
466
472
477
471
465
470
482
482
474
467
476
483
477
471
476
483
485
477
470
475
482
483
473
473
482
488
483
473
473
481
485
481
474
478
489
491
488
493
505
517
512
505
509
524
534
528
514
513
516
512
498
491
494
495
485
471
470
480
478
469
464
466
471
468
460
459
465
471
465
455
451
453
466
492
533
579
621
648
663
665
663
633
554
477
431
424
431
436
436
444
451
446
434
435
441
446
441
431
437
449
454
448
445
457
468
465
456
457
469
478
473
465
467
473
479
475
472
482
495
494
484
485
499
506
505
503
510
521
527
524
518
530
543
543
538
537
542
541
536
527
519
514
502
486
474
472
468
455
441
439
443
443
430
420
426
436
433
423
419
430
440
435
429
427
436
441
435
428
433
441
440
428
423
437
446
436
422
420
430
434
428
420
423
428
426
417
409
410
413
410
403
404
415
415
405
398
405
410
406
399
402
410
415
409
401
404
415
416
408
402
409
418
417
405
401
408
418
416
411
417
426
428
424
425
434
442
443
438
439
452
457
446
433
432
439
435
422
412
418
428
422
411
413
424
426
419
414
420
431
434
427
425
438
450
446
430
431
465
514
553
586
622
661
665
664
650
593
527
468
433
433
456
468
467
463
467
475
474
465
462
473
482
480
473
472
481
486
476
475
484
495
495
489
487
494
504
503
495
497
505
509
506
506
511
518
517
512
518
531
538
535
530
539
552
557
552
547
552
565
567
556
546
549
555
545
527
517
516
508
493
480
479
480
472
461
456
462
467
459
450
454
461
461
452
450
460
470
467
457
455
465
476
475
470
468
475
476
470
466
472
478
477
470
472
479
482
477
466
466
476
478
466
456
462
467
464
457
453
460
464
459
450
451
457
460
454
451
458
462
459
452
451
457
459
449
446
450
454
451
448
446
454
460
456
471
465
471
465
459
466
470
461
450
448
453
454
443
433
434
437
434
425
420
418
423
421
414
407
409
413
408
398
398
404
401
385
377
397
443
490
519
546
587
624
634
587
514
455
400
359
349
364
378
376
372
370
376
380
372
369
369
375
380
377
369
372
380
377
368
368
376
381
377
370
375
381
381
377
377
381
390
391
383
382
392
401
403
406
413
422
424
423
425
439
456
456
448
452
468
478
477
472
471
475
472
463
451
451
453
441
426
419
420
422
414
405
406
416
417
408
404
411
419
417
412
415
427
431
424
420
431
443
444
438
437
448
459
455
445
445
453
456
449
443
447
456
454
443
439
443
447
443
431
430
438
440
434
429
436
445
438
427
426
431
437
429
419
418
426
428
420
413
418
426
425
418
418
429
436
428
423
430
439
436
421
411
410
414
407
393
390
395
397
385
376
378
383
382
373
365
371
378
374
367
365
370
372
361
346
348
379
423
460
490
524
553
578
573
514
446
390
336
305
307
323
329
326
329
337
344
340
329
327
335
340
336
331
335
344
344
338
336
342
346
343
337
340
352
356
348
343
348
357
358
354
353
361
368
367
363
366
375
378
374
369
376
386
388
380
376
388
394
386
375
376
379
375
356
339
335
333
324
310
298
299
300
293
287
285
289
294
287
279
285
295
295
283
278
288
299
295
288
293
305
312
306
303
308
319
323
321
333
334
341
340
336
343
355
362
359
356
364
374
377
374
376
381
384
379
377
383
393
395
391
392
401
410
402
393
396
406
415
410
405
413
420
418
412
409
420
437
439
433
436
444
450
447
444
449
456
452
440
437
440
442
440
429
425
431
434
428
423
427
437
438
429
426
437
445
438
428
431
440
441
425
423
457
509
549
571
596
634
660
654
603
538
482
433
402
395
413
426
422
414
410
415
422
422
414
415
422
425
422
416
420
429
426
419
416
427
433
425
422
432
440
441
434
431
437
446
448
441
440
451
458
456
453
459
471
476
478
481
488
495
495
492
496
501
505
500
492
490
498
491
475
460
454
452
442
426
420
421
422
412
401
402
406
404
394
385
389
394
391
380
383
388
384
377
372
376
383
378
373
371
376
380
376
368
369
377
377
364
356
363
369
366
356
348
350
354
352
340
337
337
334
325
319
325
332
327
316
313
321
327
321
314
317
324
323
316
310
317
327
324
317
314
322
330
324
315
317
327
332
329
328
339
351
349
344
348
358
371
377
371
366
369
368
361
359
363
363
359
350
346
352
357
349
341
342
353
356
350
345
350
357
357
350
349
355
356
353
367
411
467
502
523
546
586
595
543
472
415
375
356
349
354
368
383
382
371
363
373
386
385
379
377
385
387
381
382
391
401
403
396
391
396
404
408
408
409
417
421
417
418
430
440
438
437
440
456
469
463
457
461
475
481
477
477
485
498
502
493
489
494
500
497
488
479
478
474
460
444
435
427
415
402
398
400
397
390
382
379
385
387
378
370
372
379
376
367
369
381
385
378
370
371
378
379
373
367
373
379
376
366
358
364
369
362
356
358
366
365
351
345
356
363
358
346
345
351
355
349
342
345
356
360
352
346
353
362
361
352
349
357
363
359
352
353
362
364
355
349
353
359
354
345
350
360
363
354
347
364
368
361
350
350
361
365
355
340
335
342
342
330
317
317
320
314
303
298
301
305
299
292
291
297
299
293
288
294
299
305
303
298
299
305
323
358
400
439
474
499
526
543
507
443
380
324
303
313
325
326
326
334
338
332
329
334
343
346
336
335
344
351
343
337
342
352
354
350
351
359
365
366
360
361
370
380
379
375
382
395
398
393
395
406
417
419
416
419
432
442
444
446
458
469
472
469
471
482
488
482
472
474
463
449
437
436
437
434
422
412
414
419
414
404
406
415
416
406
400
409
417
414
410
407
414
422
418
414
420
432
440
431
425
434
444
445
440
440
445
451
448
439
443
453
455
446
435
440
448
445
431
425
434
439
432
420
424
436
439
429
418
424
427
425
420
422
426
430
424
417
418
425
428
420
414
417
419
418
409
407
416
425
424
416
417
431
438
430
421
431
447
452
443
432
435
434
427
422
424
425
421
412
408
411
418
416
410
410
415
423
416
405
411
421
424
418
412
422
427
421
430
472
532
576
599
623
653
662
635
565
493
439
415
410
411
422
431
434
433
428
428
433
428
415
407
416
427
423
414
416
422
423
418
418
421
424
422
418
416
424
432
429
419
423
435
438
429
420
422
432
436
435
439
449
451
446
443
446
450
458
453
443
440
447
445
438
437
439
433
411
392
385
390
384
365
351
353
357
354
344
343
342
340
333
328
330
337
332
323
316
324
340
337
321
317
325
336
336
320
314
326
334
327
322
329
337
333
324
323
328
327
316
308
317
325
320
311
306
308
312
307
296
295
303
310
305
296
294
298
299
293
293
296
300
297
295
297
306
313
310
309
312
318
318
318
318
322
326
318
308
308
315
311
297
295
304
310
303
295
293
301
310
308
301
303
313
318
311
302
304
313
311
298
300
333
384
425
449
481
520
550
536
469
399
343
293
268
273
292
303
292
284
293
304
304
294
291
297
306
304
294
294
308
316
306
296
302
313
313
305
301
310
318
315
306
305
315
318
309
305
316
329
331
324
321
337
349
350
344
349
363
371
368
366
373
380
381
376
373
376
377
363
346
343
342
334
322
312
314
318
313
303
296
303
312
310
304
306
316
320
315
312
315
321
320
319
323
334
334
329
327
332
336
337
335
334
342
349
345
341
341
348
352
344
341
347
351
354
349
345
353
359
358
352
354
367
373
367
364
371
383
386
379
375
385
397
401
397
397
405
414
420
420
424
430
432
432
425
429
434
430
422
416
415
416
416
410
411
415
415
410
406
415
424
423
418
420
426
432
428
421
423
428
432
454
499
552
593
618
639
661
658
610
536
472
429
418
423
428
432
440
447
444
431
431
442
444
441
437
443
450
450
442
439
447
455
453
445
446
454
459
453
450
456
467
468
459
458
472
484
482
479
485
494
499
501
502
510
521
522
518
522
540
544
533
531
538
548
548
532
516
517
522
509
489
477
477
477
467
452
449
455
458
451
444
447
457
460
454
454
463
472
467
460
463
468
470
465
468
476
482
478
471
473
480
483
482
474
478
488
488
480
474
482
489
486
478
478
484
483
476
473
477
483
478
468
464
469
480
477
466
466
477
482
477
474
479
487
486
477
475
486
495
489
475
469
470
468
461
453
454
456
451
439
432
441
451
445
437
438
443
443
438
432
436
445
444
435
427
430
454
489
524
562
602
633
653
651
611
554
490
428
395
402
415
418
410
409
417
417
409
402
407
417
416
407
403
412
424
422
414
419
427
430
426
423
427
433
433
428
429
439
447
443
434
441
451
455
449
448
461
473
473
468
472
487
494
490
484
489
502
505
498
495
503
507
495
478
469
469
463
446
430
424
430
427
414
408
411
417
413
403
401
408
413
405
398
402
416
410
402
397
405
414
410
400
402
414
415
408
403
408
419
423
418
416
425
436
432
422
421
430
433
425
422
429
436
431
423
422
428
432
431
425
430
439
440
434
427
431
443
446
439
438
448
454
451
447
453
469
478
473
469
476
484
488
488
489
491
493
483
476
478
484
482
469
462
468
472
467
458
456
463
472
466
460
460
465
468
461
455
463
471
465
454
468
512
566
605
628
657
666
666
662
620
549
484
444
435
448
471
477
468
474
480
479
475
472
478
485
483
475
474
480
485
480
475
477
481
483
478
471
478
489
486
478
483
491
496
492
489
496
507
509
503
496
512
532
532
527
529
541
549
545
541
544
550
548
539
538
541
540
523
501
495
498
488
467
456
459
461
452
437
433
436
440
433
424
428
436
437
431
428
434
443
439
430
427
434
444
442
432
432
439
441
431
423
428
438
434
424
418
423
424
418
413
414
419
414
405
403
407
410
406
398
394
397
400
396
391
393
397
395
388
383
388
396
390
381
380
388
395
391
388
396
403
400
392
391
401
409
399
382
380
389
388
376
364
364
372
370
362
357
362
369
364
356
356
361
365
357
351
358
365
364
352
342
348
373
410
447
488
527
561
581
577
530
463
396
345
320
323
338
340
337
342
352
356
347
342
348
356
354
349
349
357
363
358
350
352
363
366
358
355
363
370
366
360
362
370
375
373
371
377
385
388
385
388
398
408
409
404
407
422
434
433
428
432
439
442
436
434
438
437
426
410
398
400
397
383
368
362
363
363
352
345
348
351
345
335
336
346
350
348
340
339
350
354
349
348
356
362
357
350
353
364
369
361
353
358
368
369
359
352
357
365
363
358
359
365
366
360
355
360
371
367
359
356
365
370
365
354
354
366
366
358
354
360
371
368
360
356
361
370
369
360
359
367
369
363
363
375
388
392
386
Pomiar: Klaudia Czas badania: 36.27 sekund
