372
379
374
380
392
387
376
376
383
391
380
363
356
361
359
345
328
327
338
338
322
315
320
329
320
305
311
321
318
311
302
305
323
326
315
308
318
329
331
323
321
330
336
329
318
323
341
346
332
322
332
339
332
318
321
336
342
333
323
329
340
337
320
320
330
339
333
321
319
331
330
317
310
318
331
328
315
312
326
337
335
325
323
334
333
321
318
329
341
335
325
323
328
332
326
320
326
340
343
331
323
330
339
338
323
324
336
344
336
326
326
341
345
334
325
336
345
344
339
343
358
360
352
339
343
358
364
364
352
354
355
347
342
342
353
354
340
335
340
345
346
329
327
341
351
345
333
334
345
352
347
335
347
376
410
455
527
608
654
605
474
367
321
308
300
300
313
331
329
327
326
332
339
336
325
327
340
345
338
329
336
344
344
334
330
338
350
347
340
344
357
357
349
345
357
367
365
356
359
372
378
376
372
381
392
395
389
384
397
408
405
397
404
410
413
405
396
395
401
398
379
366
371
371
357
339
337
350
353
339
326
332
349
346
330
326
334
342
341
331
332
343
348
340
334
342
352
349
335
335
350
364
356
342
344
357
360
349
342
350
362
357
344
339
349
355
345
336
340
357
356
342
344
353
362
356
339
332
341
351
346
335
338
350
352
343
336
343
351
349
345
336
346
350
340
331
335
351
349
333
326
336
347
340
331
338
348
346
345
346
353
354
349
337
337
352
365
358
343
338
345
345
337
330
329
333
333
323
317
328
339
329
314
314
328
338
324
317
327
334
324
321
329
358
410
473
546
602
609
510
379
298
280
289
284
272
274
297
315
305
292
296
312
309
300
302
312
320
312
301
304
319
323
311
300
306
322
327
318
311
316
326
323
316
316
330
337
327
317
328
343
344
337
333
348
358
354
347
351
357
360
351
350
358
370
366
348
338
337
339
330
314
306
309
306
297
284
285
296
296
281
276
282
287
277
267
271
285
290
281
272
280
291
281
270
277
289
296
288
273
279
289
295
288
281
287
298
295
279
274
287
301
291
281
284
295
300
287
279
286
296
290
283
284
289
291
283
272
276
290
295
282
275
283
296
293
278
271
286
294
286
274
277
288
290
282
278
287
294
286
276
284
301
304
296
290
296
309
309
289
287
298
316
312
296
293
306
301
287
282
291
300
295
280
280
291
295
292
283
286
307
307
289
282
294
306
303
288
285
300
323
347
396
476
564
607
547
429
342
309
289
275
271
286
295
290
284
293
308
310
296
298
309
318
317
306
304
316
326
329
319
318
327
337
333
326
332
344
342
338
338
347
350
345
338
354
371
371
361
358
370
383
384
378
379
394
396
388
382
388
400
396
383
375
381
386
380
363
354
364
365
346
329
334
344
338
325
322
333
341
336
321
325
338
339
329
321
334
345
347
331
331
345
348
339
332
336
351
356
345
340
345
350
348
341
340
348
355
350
340
344
354
354
344
338
345
354
351
341
340
352
357
355
346
350
364
358
346
344
352
364
359
344
345
358
363
357
350
357
366
367
356
355
365
369
363
356
365
380
381
364
345
347
363
363
352
344
345
354
348
344
345
348
353
343
340
352
363
358
346
344
355
362
358
363
389
456
535
599
638
610
508
397
332
307
314
322
320
312
323
348
347
333
326
336
350
350
337
338
350
357
348
340
346
358
362
349
348
357
365
356
346
352
369
375
370
363
367
379
379
372
369
378
394
394
382
389
402
408
398
389
401
413
406
393
389
396
402
397
383
375
376
372
358
343
345
352
347
332
326
342
354
342
326
325
335
341
334
325
333
345
341
328
326
340
351
347
336
337
352
360
348
339
347
353
352
347
346
355
359
354
344
347
357
358
344
338
352
364
357
365
361
359
359
352
352
356
356
350
344
354
364
359
346
349
365
372
362
354
363
378
376
367
362
369
388
393
382
384
396
401
394
385
392
406
407
398
395
404
415
412
402
410
422
427
414
407
414
424
419
410
412
425
431
422
404
404
418
417
404
394
406
420
413
403
395
402
408
405
397
400
417
421
407
400
409
418
414
410
427
481
557
630
659
659
646
539
413
345
347
363
372
375
375
386
393
379
365
368
382
386
378
372
373
383
378
362
358
371
372
362
353
356
369
366
351
349
361
371
364
346
349
364
368
357
348
357
374
370
357
354
366
377
371
360
357
367
378
372
358
360
367
359
336
322
325
334
321
297
286
291
293
275
258
259
263
263
257
253
254
253
243
228
234
246
246
233
224
234
247
238
221
219
234
242
231
219
225
236
233
219
214
217
224
219
207
207
217
220
208
185
192
206
200
184
174
179
183
176
162
168
178
174
165
148
154
174
178
163
154
159
172
168
158
154
174
177
163
157
173
181
176
167
168
180
196
189
174
177
189
195
189
180
183
198
202
189
196
207
206
196
183
183
198
203
196
195
200
210
210
201
205
225
231
221
211
216
231
235
225
219
228
237
233
208
208
221
226
221
204
203
221
226
212
202
222
235
232
223
221
227
235
232
222
223
233
249
263
294
360
456
519
536
466
357
266
216
200
206
221
227
224
226
239
248
240
228
241
247
257
249
244
251
262
260
256
257
264
274
273
263
269
285
289
281
280
290
305
308
301
305
320
331
323
320
334
355
358
354
357
367
377
375
367
377
402
418
416
406
415
435
442
434
437
449
459
452
443
446
464
479
480
475
489
509
510
505
507
524
542
541
533
541
564
576
569
559
564
579
584
573
569
586
601
600
595
596
610
615
610
607
617
629
625
608
608
622
631
622
610
607
621
634
626
614
614
618
615
601
599
612
618
609
596
600
613
613
597
591
608
622
620
599
590
599
609
601
589
591
603
603
588
579
586
603
596
586
578
583
582
571
556
556
567
567
550
537
544
552
546
525
518
527
538
532
520
521
526
520
504
491
497
505
495
484
495
502
487
467
449
457
462
451
437
424
429
445
443
418
405
414
422
417
404
410
424
423
404
398
407
408
401
395
418
482
566
634
656
639
544
437
370
341
344
348
343
332
336
357
363
349
339
341
354
348
333
335
340
351
346
331
336
351
352
338
337
343
354
360
348
343
349
354
350
341
347
355
355
346
342
353
366
359
341
344
362
368
363
355
358
371
371
359
347
354
366
358
339
331
339
339
322
305
308
315
312
292
283
296
300
293
280
275
282
285
279
271
275
290
293
281
282
290
299
298
288
294
310
318
307
296
297
303
299
285
290
301
302
288
273
272
284
290
276
260
266
280
270
257
260
268
261
257
249
251
258
260
245
232
241
256
250
233
230
245
250
237
224
229
239
244
228
215
225
236
230
211
211
220
229
218
208
210
217
219
204
195
205
217
214
200
200
214
222
212
201
202
210
208
201
203
204
203
186
167
166
174
177
161
148
152
161
156
141
138
152
154
143
130
136
146
146
136
129
130
137
133
144
181
257
336
386
394
323
223
144
101
85
84
95
98
90
87
104
116
109
92
95
106
108
107
97
102
113
113
110
106
116
127
119
110
114
130
137
129
118
132
143
140
126
128
152
166
156
149
153
173
185
173
168
183
200
199
189
193
207
214
210
202
205
213
212
199
187
196
200
187
172
171
180
180
167
155
164
177
175
164
165
174
181
170
158
169
189
195
184
170
178
194
194
182
183
200
215
205
190
198
214
218
207
206
218
228
223
214
214
226
232
223
213
220
235
239
228
223
235
249
246
230
228
254
254
240
222
229
247
251
242
237
246
254
249
249
263
263
253
245
252
269
275
262
260
269
282
282
280
280
297
301
292
288
298
312
311
301
300
318
329
324
309
306
314
317
308
301
312
317
310
298
296
307
316
313
305
310
325
327
318
311
319
325
321
312
322
354
397
455
520
591
624
552
425
338
303
310
307
292
293
313
327
323
317
324
338
341
332
328
339
353
352
344
344
352
358
355
352
357
369
370
360
359
371
382
374
365
372
387
391
386
378
386
402
408
400
390
400
416
417
412
409
425
434
428
424
430
436
433
416
412
421
424
414
400
398
402
405
394
384
384
389
390
373
362
385
395
379
369
375
387
387
377
371
377
391
393
381
383
397
399
386
383
387
400
405
393
389
402
411
399
394
400
408
413
405
404
405
414
413
404
401
414
424
417
401
401
417
426
418
409
414
424
424
413
408
419
438
429
410
414
429
430
425
418
422
433
431
421
417
429
440
438
429
431
446
450
450
443
442
452
450
446
449
459
464
457
442
442
451
455
444
433
442
455
453
438
441
459
473
465
450
448
459
464
458
453
455
470
475
480
515
595
660
661
662
660
641
539
442
406
413
425
429
429
436
452
457
447
437
444
460
465
453
451
458
463
465
453
446
459
467
455
443
443
453
450
434
426
431
439
433
427
423
430
433
423
412
418
433
430
417
416
423
429
418
404
407
421
423
408
395
399
405
402
382
364
366
364
349
334
331
335
326
310
299
304
310
308
295
290
299
304
297
282
287
299
300
287
281
292
303
298
285
285
295
299
290
281
285
295
294
279
270
285
294
287
274
276
288
293
281
266
270
284
279
262
257
267
279
270
250
253
269
271
256
247
257
264
260
247
243
250
258
253
240
240
249
252
242
232
237
248
248
234
230
238
244
238
230
232
246
251
246
234
240
252
253
235
224
238
247
239
229
232
243
241
225
214
220
236
222
208
209
221
224
219
209
208
218
217
206
204
213
224
222
213
205
216
236
253
296
378
472
527
494
382
270
202
173
167
174
189
198
190
180
186
201
200
190
186
193
200
201
191
190
207
213
204
193
195
212
213
198
197
209
221
211
197
199
215
224
217
209
217
228
227
217
220
234
242
240
234
242
257
258
241
240
250
265
262
246
245
256
254
240
224
222
228
226
210
198
201
205
199
187
186
199
203
195
183
184
194
198
189
186
196
205
200
190
195
210
215
203
191
198
215
220
208
208
217
225
225
213
206
219
231
226
218
225
237
235
220
218
229
238
232
218
218
234
239
230
226
234
239
231
227
230
237
241
236
223
224
237
243
234
225
232
242
239
228
227
238
243
235
223
226
239
240
228
219
226
238
242
234
229
237
242
234
226
230
244
246
234
227
236
250
251
241
242
260
268
256
237
246
261
268
267
266
269
267
253
243
252
267
269
252
239
243
260
263
244
237
247
257
256
242
246
258
263
254
239
244
268
283
299
359
451
538
573
518
407
321
276
257
260
283
311
320
315
317
332
340
334
327
334
350
354
343
337
349
368
373
360
363
378
390
394
382
383
398
413
408
402
414
430
431
422
428
443
453
448
445
464
490
500
499
502
527
551
550
537
542
567
576
569
564
569
582
577
557
549
558
569
561
543
542
552
556
547
537
539
545
544
539
533
542
553
547
537
545
548
556
552
543
549
562
560
549
545
559
572
571
562
566
582
588
580
574
590
606
604
591
590
601
609
603
594
598
608
608
597
594
605
613
605
593
595
609
615
605
591
597
614
610
591
587
598
605
592
576
575
586
592
581
568
567
573
572
561
554
559
567
559
543
540
552
547
539
534
528
533
528
520
507
506
510
503
493
492
496
490
473
459
468
483
477
453
436
437
442
427
406
395
402
404
393
380
382
385
374
356
358
350
333
318
325
336
334
317
311
333
379
446
513
576
613
558
435
341
304
304
299
278
274
291
310
315
306
303
314
319
314
306
314
328
331
324
323
334
344
341
329
333
345
349
352
344
350
362
364
354
353
369
385
381
370
371
386
395
395
391
402
417
417
410
412
425
436
427
418
423
433
440
429
420
424
433
426
405
400
408
409
393
376
375
388
390
379
370
374
388
388
376
374
383
389
383
372
377
391
394
383
377
389
400
396
383
383
396
402
397
383
383
394
399
389
377
385
394
390
378
375
388
392
383
373
378
385
384
369
362
371
382
376
359
358
375
378
361
356
362
371
365
350
346
356
366
360
346
344
352
351
343
333
336
346
343
328
324
338
348
340
320
315
333
344
341
333
329
330
325
309
307
317
325
316
302
303
314
319
312
306
314
325
324
313
310
324
335
325
310
313
336
355
374
425
512
603
644
598
481
388
335
306
294
298
318
328
325
322
335
348
346
340
341
353
357
352
342
348
363
366
359
354
365
380
379
363
361
377
385
378
370
378
394
397
390
382
392
409
411
403
407
420
422
414
412
424
436
438
437
433
439
447
441
428
425
429
429
417
405
404
409
398
375
368
375
386
374
356
356
370
376
364
351
357
367
367
356
355
362
370
365
353
359
374
373
358
350
364
376
374
358
355
369
378
367
355
359
367
365
354
344
350
357
350
340
341
350
351
340
329
331
342
342
334
326
325
332
320
315
320
326
325
313
303
308
320
311
297
289
295
302
296
285
281
290
292
280
270
274
283
276
265
261
269
272
262
246
247
259
259
247
236
237
247
249
235
225
232
242
236
220
219
225
226
216
214
228
243
234
216
210
220
228
225
215
217
224
228
223
219
226
236
234
223
223
239
249
239
228
234
245
248
251
265
309
383
461
526
565
522
401
282
220
218
238
242
240
245
262
276
274
261
261
275
283
281
270
272
289
290
283
280
292
307
304
294
296
308
318
313
305
311
322
331
325
321
332
345
341
335
339
353
361
355
348
362
377
378
369
370
383
394
388
379
378
392
400
386
371
372
375
365
349
344
351
348
334
321
323
336
335
321
313
320
327
325
316
319
329
334
333
324
331
345
342
329
319
333
351
349
334
330
340
347
339
329
333
345
347
337
331
338
349
344
325
318
326
331
320
304
305
316
317
306
299
302
307
302
292
293
302
299
287
281
291
304
300
285
281
292
296
287
280
286
297
294
284
280
285
291
288
280
278
288
293
282
267
274
291
295
282
271
276
287
287
276
271
283
292
285
274
282
297
296
284
283
292
299
291
279
281
296
306
299
285
281
289
287
270
260
270
278
271
254
249
259
263
253
244
249
263
259
244
238
250
261
253
236
233
254
278
315
383
466
538
535
424
299
239
222
209
191
191
210
222
216
206
213
228
226
214
209
219
231
230
218
217
227
230
222
218
225
243
244
227
221
234
244
238
226
233
250
252
243
239
247
260
258
250
251
265
278
275
269
279
290
291
282
283
296
308
300
283
285
300
304
285
263
261
270
265
246
236
243
251
245
228
224
237
242
234
226
232
246
245
230
225
238
250
244
233
237
252
256
246
240
248
262
262
251
248
258
267
262
249
252
268
270
260
250
255
269
270
258
254
266
274
263
258
264
275
278
266
261
269
279
278
266
264
274
282
277
267
271
286
288
276
271
279
290
289
277
271
285
298
297
287
286
298
302
298
296
300
305
303
299
304
315
318
305
288
288
302
304
289
277
284
296
292
287
290
297
297
292
285
288
297
300
292
286
291
301
299
294
309
370
452
524
566
563
475
368
301
278
284
288
272
259
264
284
294
288
282
288
300
299
284
277
299
316
308
293
293
304
312
307
297
303
311
300
301
313
318
309
300
302
319
326
312
313
328
331
335
327
326
336
344
338
328
336
353
354
341
332
337
344
340
322
314
321
326
305
287
284
291
286
273
258
262
272
264
249
246
263
269
260
247
251
263
259
246
243
251
261
260
249
244
258
263
253
242
246
258
262
252
240
246
254
245
236
240
252
257
242
227
237
250
248
235
231
240
246
240
230
230
240
247
237
229
235
243
243
232
230
242
247
238
227
229
244
252
247
237
240
249
245
237
237
250
259
253
240
241
254
262
252
244
253
267
263
248
250
261
268
261
251
255
271
282
274
271
283
292
282
271
276
293
307
297
285
288
294
294
281
279
286
298
297
284
280
290
294
286
279
287
301
303
291
289
304
310
302
298
308
329
365
417
494
580
631
581
445
322
271
270
279
282
293
309
313
307
296
309
330
333
320
321
331
341
335
326
332
347
349
342
336
351
371
365
352
356
370
377
372
362
367
383
386
373
368
383
400
401
390
395
409
421
416
414
420
433
436
429
427
435
448
446
429
425
430
431
420
404
400
408
401
388
378
380
383
376
366
365
376
380
371
364
371
380
378
365
366
379
384
380
371
374
383
384
374
372
383
395
392
379
377
392
404
393
385
389
395
396
385
378
387
400
397
383
378
387
401
395
383
385
395
396
388
378
389
403
396
371
366
383
395
387
373
380
393
394
382
377
388
398
394
382
378
388
392
385
375
388
397
394
382
376
385
395
389
375
380
395
402
392
380
385
396
392
379
373
386
398
390
383
387
401
405
393
387
403
410
400
385
387
403
416
411
390
383
391
395
387
378
379
388
382
371
370
377
386
386
369
369
381
383
377
370
375
384
379
367
369
390
428
479
544
628
659
648
546
420
348
336
337
329
331
351
360
354
345
351
365
365
355
346
354
368
365
354
357
365
376
371
363
361
370
373
365
360
368
380
374
363
365
381
388
381
369
375
391
395
387
385
397
410
405
393
399
420
429
418
404
409
424
421
405
398
402
405
392
372
366
371
368
352
339
343
353
352
330
323
330
337
330
316
321
334
334
324
319
325
335
332
322
320
328
335
327
315
329
343
346
329
318
323
334
333
319
317
327
331
323
312
315
327
326
312
309
316
326
323
301
300
319
319
304
297
303
312
309
295
290
299
308
301
288
290
303
307
299
291
296
303
298
285
280
296
310
299
281
283
302
299
284
275
281
294
294
278
272
287
300
292
275
279
292
294
285
278
282
290
285
272
275
287
294
291
284
284
294
300
292
291
300
303
292
281
288
308
315
303
283
280
293
295
281
271
281
291
286
277
274
282
288
280
273
280
291
286
275
270
282
286
282
275
285
340
422
496
546
557
485
371
288
246
253
263
251
241
249
271
282
270
255
265
281
274
256
250
264
280
275
262
266
279
288
278
264
269
282
281
275
274
283
293
287
275
277
294
301
291
287
301
311
310
300
300
318
329
320
312
315
332
340
331
321
325
336
334
322
313
315
314
305
296
293
297
290
276
266
270
277
268
254
250
262
269
258
244
252
267
269
260
257
262
275
273
262
260
271
274
268
260
267
280
283
275
265
273
283
279
268
269
283
285
273
266
274
284
282
273
269
279
288
281
270
270
281
281
278
270
274
290
292
273
267
281
288
282
269
273
288
292
284
276
286
293
289
276
274
288
297
291
280
284
292
293
290
286
293
309
304
298
301
311
317
306
291
294
315
322
312
297
301
303
295
283
285
298
300
290
281
281
287
290
283
278
281
295
290
274
274
288
293
279
271
283
306
332
382
458
545
594
542
407
301
265
256
243
225
234
250
256
252
248
256
266
262
248
250
261
272
270
257
253
261
266
261
256
261
267
264
253
256
272
277
268
269
285
289
269
265
286
294
288
280
289
303
307
300
297
306
316
312
304
303
316
323
314
300
303
310
302
283
270
269
276
266
247
237
241
243
234
218
223
230
226
216
211
218
225
220
214
211
217
224
218
208
213
226
227
214
208
222
232
226
211
212
226
231
225
216
220
228
228
218
211
221
231
223
213
215
226
228
222
212
209
223
227
220
213
218
223
221
219
223
234
235
225
213
224
239
237
223
220
234
241
238
228
231
242
245
236
230
237
248
247
234
233
243
253
246
242
249
257
260
251
245
253
262
259
247
250
273
282
274
267
275
283
281
271
270
283
297
292
285
283
282
278
274
269
275
285
290
277
271
282
292
287
277
280
290
294
288
282
290
307
305
292
298
336
400
472
542
600
603
501
366
282
259
273
276
272
278
295
306
301
293
297
308
312
300
294
305
317
318
312
311
321
330
327
315
315
329
335
330
326
333
343
343
335
338
349
356
351
345
354
367
372
367
365
377
390
386
379
381
390
402
400
391
397
409
402
387
376
382
386
376
357
350
359
358
344
331
331
339
334
321
317
325
332
325
315
314
330
337
330
320
318
334
335
323
321
336
344
332
320
326
343
346
335
327
332
343
345
334
331
342
349
342
328
331
347
349
337
327
333
343
338
326
323
335
343
335
322
328
342
343
332
324
333
348
340
326
324
334
338
338
334
332
339
338
327
323
341
348
343
328
326
338
346
335
326
330
339
342
332
324
336
344
333
321
321
333
337
327
318
330
344
342
328
325
340
351
342
325
325
344
354
344
329
331
334
336
328
315
321
326
320
308
310
321
321
313
311
314
321
314
303
304
318
331
319
304
308
333
371
421
488
568
626
596
472
349
291
276
272
268
282
301
305
297
291
301
318
317
302
302
321
323
313
306
310
323
326
315
312
323
335
329
312
313
329
338
330
322
330
347
352
344
334
344
356
354
350
354
365
371
367
363
371
386
390
383
373
379
394
389
374
373
383
382
366
351
346
351
344
325
314
320
328
314
297
300
310
307
298
291
297
308
303
296
294
306
315
304
289
297
311
319
304
294
301
314
313
300
300
313
317
310
300
305
320
314
304
298
310
320
312
299
299
311
315
307
295
302
314
311
298
294
311
323
315
298
297
308
316
311
301
304
314
315
306
304
314
323
318
304
307
321
325
316
309
312
322
323
311
307
321
334
325
316
315
326
331
319
311
318
331
329
316
313
326
335
328
320
329
341
340
325
317
330
347
346
329
322
324
325
321
309
312
318
319
309
301
308
318
318
307
305
318
322
312
301
308
320
318
300
299
320
355
406
475
555
614
584
458
339
293
290
285
270
266
283
300
301
297
297
306
309
301
298
304
316
314
302
297
306
316
313
305
307
318
322
313
310
321
330
325
312
312
329
340
339
330
333
345
348
337
341
352
366
364
353
357
368
379
376
364
366
380
383
374
366
363
368
361
343
335
339
339
326
311
310
315
310
292
284
295
308
304
292
288
299
304
301
293
295
306
306
296
292
306
316
306
291
296
312
318
308
297
302
313
313
300
298
307
315
311
300
299
314
316
303
289
294
304
307
296
298
314
313
298
289
294
307
309
300
291
298
307
307
293
287
299
307
300
291
292
306
308
298
299
309
312
306
290
288
307
317
303
289
293
306
314
311
303
310
319
319
302
302
322
329
321
314
317
325
326
309
296
300
312
312
302
293
303
309
296
285
290
304
301
296
291
301
311
309
302
294
294
304
308
320
375
464
553
598
577
481
377
315
272
261
270
277
274
276
285
302
298
284
284
297
305
301
292
295
307
313
302
290
305
325
318
298
294
312
321
315
304
304
322
329
319
309
317
331
331
322
322
336
342
335
328
342
360
350
344
356
372
368
354
349
363
375
357
336
338
347
344
327
317
315
317
307
291
290
300
303
293
286
295
304
298
292
286
289
298
295
286
287
301
302
296
289
298
311
310
296
295
305
312
309
301
304
314
323
308
295
302
314
315
302
296
306
319
309
297
298
309
314
304
295
303
313
314
300
298
311
323
309
298
304
324
322
306
301
309
315
312
300
300
315
324
314
302
309
323
323
311
304
317
332
321
307
306
317
323
322
313
321
332
333
324
320
329
340
334
326
330
348
353
335
322
320
328
331
325
315
318
326
321
312
314
327
331
316
308
322
335
330
317
316
325
332
331
328
346
399
476
554
609
626
551
427
330
290
293
303
294
286
297
318
325
315
311
323
329
324
308
308
325
338
329
318
324
339
343
332
324
340
353
345
334
333
348
357
351
341
348
359
363
353
347
359
376
375
367
369
386
398
393
383
391
403
403
390
386
400
412
404
387
382
386
382
364
349
352
356
349
332
323
329
335
328
314
311
320
325
321
314
317
327
329
317
312
322
333
329
316
323
336
336
322
315
324
336
336
324
318
331
344
338
326
326
336
336
325
321
332
344
339
326
318
325
332
326
313
317
332
332
322
314
325
336
332
319
318
326
333
329
319
323
336
333
323
318
323
332
331
319
319
333
337
330
321
332
346
344
333
326
335
348
346
340
338
344
346
331
316
320
337
339
317
309
315
323
320
311
311
326
325
313
304
318
331
329
317
310
319
337
348
373
443
540
620
637
554
430
336
284
268
275
294
307
305
295
298
310
323
315
303
309
318
318
313
309
321
328
322
312
316
330
335
327
322
332
344
345
329
325
342
353
344
333
345
363
362
355
351
362
374
373
367
370
384
392
386
380
387
399
402
389
383
391
394
385
367
361
360
359
348
330
329
336
333
319
311
314
319
317
309
311
316
317
310
306
315
326
320
309
312
324
333
326
315
320
332
335
324
315
324
336
336
323
324
341
350
335
320
322
337
340
329
318
329
346
339
327
322
333
336
327
318
321
333
335
327
323
332
345
339
327
326
334
344
340
328
332
341
342
334
325
335
347
344
328
326
341
351
340
329
340
353
355
345
337
348
361
361
346
346
356
362
358
353
358
367
361
343
335
348
360
352
340
345
353
353
345
338
343
352
354
343
338
349
361
357
346
344
356
367
372
399
474
574
646
654
597
485
390
332
307
315
332
343
343
337
343
359
359
346
343
359
367
362
347
354
366
368
362
355
370
386
383
371
363
376
387
385
376
378
392
396
390
383
394
407
408
401
397
409
421
420
416
427
447
450
437
431
440
451
449
436
431
439
444
432
415
413
421
414
392
381
384
388
380
366
362
371
381
371
359
365
373
368
355
353
366
373
361
348
351
363
369
360
346
354
364
359
347
343
357
367
357
343
344
355
361
349
341
350
355
349
337
332
342
352
340
326
328
340
345
332
318
326
340
342
324
312
330
341
327
310
322
334
336
323
310
319
331
327
313
310
324
333
323
313
317
329
327
316
309
318
333
328
318
319
336
339
327
311
320
341
340
324
318
329
333
316
303
306
315
311
299
294
301
311
308
300
297
307
315
308
292
294
315
320
307
294
300
325
349
393
463
547
607
572
452
348
303
292
272
256
261
279
287
281
281
289
296
292
281
284
297
297
287
281
287
299
298
287
282
300
308
298
284
292
309
310
301
297
309
320
314
303
303
317
328
324
313
322
337
343
335
331
339
351
350
340
340
352
356
348
337
339
343
347
326
310
313
317
305
284
277
286
288
273
262
266
273
267
256
251
268
278
266
256
253
260
266
263
260
263
271
270
257
255
268
276
270
257
260
270
273
261
253
262
274
272
262
256
260
268
258
255
266
266
252
244
253
267
263
249
251
260
264
258
247
251
265
267
253
244
254
265
262
248
246
260
268
261
248
256
271
270
261
253
260
270
270
253
252
267
277
268
253
258
269
271
260
259
271
280
279
271
272
282
284
276
274
289
302
294
281
272
280
288
280
262
264
273
276
269
261
269
281
280
266
263
278
288
280
270
277
291
286
272
272
302
344
399
466
543
596
552
421
305
254
251
254
242
244
263
276
271
261
264
277
282
274
267
275
291
292
282
276
289
299
296
280
280
295
309
303
285
292
310
313
304
301
311
321
318
310
315
333
343
335
324
336
352
351
338
346
368
374
360
347
354
372
376
360
347
349
354
344
329
321
326
324
308
288
286
294
293
282
276
286
294
289
276
270
282
292
283
273
276
292
294
287
275
281
290
290
281
283
300
301
291
287
289
297
297
286
284
294
301
295
283
284
295
302
294
280
283
294
294
285
284
294
300
288
274
275
292
304
292
276
283
291
288
281
278
288
296
290
276
276
291
296
286
274
279
293
289
276
271
278
282
269
257
259
267
276
265
245
250
264
265
248
239
249
263
252
237
242
256
262
254
246
253
261
259
249
249
259
262
252
246
260
276
278
264
246
252
263
258
246
242
249
254
246
237
245
260
261
246
237
251
264
261
250
251
262
267
259
260
291
354
430
505
562
562
469
342
262
239
251
257
248
246
260
280
281
268
264
276
289
285
270
277
293
298
289
280
289
306
309
297
291
304
317
313
301
302
318
327
322
312
322
337
337
329
329
342
352
349
341
350
370
377
367
358
369
394
395
376
372
384
391
381
364
364
374
370
352
340
342
350
341
322
313
326
334
319
302
312
326
327
314
307
316
327
324
313
315
326
333
322
311
320
332
331
321
318
330
341
339
328
326
337
342
331
318
328
347
343
330
323
334
346
340
326
329
338
339
329
323
328
339
336
320
316
330
335
326
316
324
340
339
327
317
323
335
334
321
316
329
343
340
323
325
337
341
327
323
333
339
335
326
331
340
339
330
319
325
340
342
330
326
336
348
347
337
336
347
350
346
342
347
360
355
338
331
336
346
339
326
321
331
331
322
315
322
335
335
325
320
328
340
338
328
331
338
335
326
330
371
447
526
584
623
593
487
371
298
280
294
301
297
297
304
316
315
303
301
313
322
310
304
313
322
321
308
299
309
320
317
307
308
316
321
315
303
307
322
327
317
308
314
325
328
319
317
332
340
334
327
340
350
347
339
333
346
358
353
338
338
348
344
337
325
321
327
318
293
281
288
290
275
260
259
264
265
256
240
241
251
250
240
233
242
248
244
233
234
249
250
246
238
245
257
259
248
243
258
271
259
251
256
267
271
260
255
263
274
274
265
266
278
281
271
264
273
285
289
278
269
275
286
283
270
267
282
293
287
275
283
296
298
289
284
294
304
305
298
295
304
311
305
295
305
317
316
294
283
290
303
299
281
275
289
295
287
280
280
285
285
275
273
284
294
291
280
276
286
302
306
319
384
477
551
571
518
414
330
286
258
255
265
273
270
273
277
289
289
281
276
287
299
294
284
290
300
301
294
288
298
312
310
300
301
315
321
315
306
313
326
329
319
309
323
340
338
330
328
340
351
346
340
350
366
367
357
353
365
376
374
366
358
368
370
359
339
333
344
341
319
308
314
317
312
297
292
303
311
301
286
286
301
312
297
285
299
312
303
291
297
311
312
307
297
306
320
318
306
305
319
327
320
308
314
329
332
326
316
328
342
334
320
311
326
342
336
323
322
334
333
325
319
329
341
335
326
326
343
352
347
340
343
359
366
355
345
354
371
370
356
350
356
357
347
338
346
359
359
346
339
349
358
357
351
373
367
358
344
356
371
369
352
345
372
409
450
512
595
656
649
559
434
367
352
346
331
327
348
366
367
357
354
362
368
364
357
366
379
380
373
368
377
385
377
363
367
385
394
380
369
376
389
389
379
379
398
410
396
384
389
405
410
403
396
406
420
419
405
408
423
443
438
419
417
427
432
423
406
404
410
404
384
370
375
379
369
355
346
353
355
337
323
328
342
339
331
330
336
336
323
317
328
341
340
326
322
335
345
343
330
328
343
355
347
330
335
348
349
343
340
348
360
351
336
333
352
359
349
336
341
355
355
343
337
345
356
350
338
340
353
357
348
344
351
368
366
351
345
358
365
357
355
358
364
367
354
336
345
360
353
335
333
345
350
340
330
337
353
357
345
333
338
349
351
341
335
342
352
361
378
438
522
608
648
622
525
411
331
295
296
310
324
320
315
330
341
342
328
316
327
341
335
323
326
340
347
342
332
338
353
353
342
335
347
355
351
337
341
355
362
354
342
347
364
371
362
357
369
381
377
366
372
390
393
384
382
387
403
400
387
381
391
392
377
358
350
357
355
338
327
332
337
325
308
304
313
320
311
297
300
316
319
304
294
303
316
310
301
306
312
315
310
298
302
314
323
313
304
311
320
316
306
306
317
321
312
302
315
329
329
307
296
314
330
320
304
304
313
316
308
302
312
323
321
310
305
313
325
320
305
303
313
320
313
304
310
322
322
310
308
317
327
327
316
320
334
337
328
316
319
334
337
327
322
331
336
320
306
309
322
327
314
302
301
317
312
296
292
311
322
312
295
302
317
323
308
297
303
321
334
349
402
495
588
628
590
485
371
295
254
254
281
298
301
292
289
297
301
295
286
292
307
311
299
291
300
314
307
293
294
310
320
313
305
308
319
320
311
312
321
330
328
319
323
339
346
339
332
342
358
360
352
349
363
378
375
364
367
381
384
378
374
374
377
370
351
340
342
342
332
317
310
314
310
293
284
291
301
298
286
283
291
298
289
278
283
296
298
290
284
293
305
296
279
280
299
304
293
282
288
303
304
289
278
287
298
298
286
283
300
307
298
283
284
295
299
292
283
293
304
294
278
279
294
300
290
282
290
302
297
284
283
299
307
297
289
301
311
306
289
280
294
311
310
296
287
290
299
291
278
284
297
300
289
282
286
302
304
295
286
295
306
306
295
297
312
312
299
300
325
370
430
498
568
615
575
454
341
285
278
289
286
291
309
319
317
305
305
326
340
330
312
317
332
341
340
333
337
348
347
335
338
354
362
353
345
350
364
366
357
354
365
378
376
365
367
385
394
392
385
392
406
409
403
402
417
430
423
410
412
424
426
413
399
400
413
403
380
367
376
385
371
352
350
358
357
341
330
337
352
353
344
340
349
352
344
333
337
352
351
340
338
342
352
350
338
336
345
354
347
337
337
343
346
341
339
347
352
345
336
339
351
356
347
332
336
349
352
340
329
334
347
344
328
325
336
343
333
320
323
340
347
333
322
329
336
336
328
326
336
340
331
318
323
336
334
325
319
327
336
332
322
323
335
346
339
331
339
352
350
336
334
345
355
349
335
337
351
349
330
317
331
353
341
315
309
323
338
327
312
321
335
344
332
319
327
339
334
321
318
331
347
351
367
437
531
608
628
557
438
352
308
288
297
311
315
307
303
319
334
334
323
317
328
334
326
315
319
335
342
329
321
338
352
347
336
331
338
338
334
335
320
332
345
338
326
332
356
358
346
342
355
368
367
362
368
376
378
372
362
369
382
382
366
355
359
362
360
353
345
346
335
313
302
309
317
298
276
271
285
290
279
265
267
280
284
273
267
277
288
284
270
264
272
280
271
259
259
269
272
258
243
245
231
216
203
205
209
196
183
183
189
187
167
152
161
173
170
149
146
154
150
135
121
126
140
136
119
113
128
143
140
126
127
142
149
142
130
137
150
150
145
141
151
156
145
126
124
138
153
143
128
128
140
144
127
118
128
142
136
121
125
142
148
142
132
139
155
169
183
237
328
412
442
394
303
231
188
156
150
156
174
183
180
186
203
217
212
201
205
228
234
225
225
243
256
254
243
242
259
263
258
250
259
275
282
273
269
282
295
297
289
300
320
325
320
313
320
339
346
340
341
362
375
369
362
369
389
398
389
375
377
390
387
368
360
368
373
361
344
345
360
359
344
330
334
346
345
333
331
339
346
340
332
335
350
356
349
340
346
356
354
344
344
359
367
363
354
357
371
373
359
354
367
381
376
363
360
372
380
377
369
377
390
395
386
380
387
398
395
383
383
396
403
396
381
381
388
386
373
366
374
383
376
367
368
377
381
372
361
372
392
389
371
372
388
389
376
367
383
423
476
537
610
659
657
590
461
368
346
357
361
359
366
379
381
375
369
381
388
390
380
377
387
396
389
377
379
395
407
398
385
393
408
408
396
393
405
414
411
404
412
423
424
418
413
422
438
437
426
428
449
461
459
449
452
464
466
456
453
464
472
461
448
447
447
441
424
410
412
417
407
393
389
398
405
394
378
377
390
396
390
378
381
395
397
378
376
391
401
400
378
380
396
404
392
379
386
404
407
399
388
396
405
398
385
389
405
412
396
378
383
401
403
393
388
399
413
409
392
390
400
406
399
394
404
420
414
395
384
394
398
386
376
382
396
401
389
377
384
397
396
382
376
387
401
398
390
388
393
399
407
438
511
605
658
659
632
533
420
349
328
344
369
380
376
369
378
386
385
374
376
391
396
386
377
388
403
400
387
382
391
406
410
399
401
410
415
406
398
406
417
415
412
415
425
436
433
422
423
441
452
448
443
446
458
463
458
458
464
467
455
441
450
462
460
441
426
425
429
420
400
388
398
403
394
380
383
396
401
389
377
385
398
397
383
380
402
405
393
382
386
399
406
397
388
392
404
403
391
389
396
402
397
389
392
402
400
387
381
388
396
392
384
389
397
393
382
374
383
399
398
382
373
380
391
384
375
374
388
393
381
371
378
391
394
386
380
386
392
389
383
387
399
400
384
365
365
376
375
364
354
362
369
365
356
357
367
367
353
343
351
366
365
350
340
351
365
367
376
427
512
599
644
627
536
429
353
310
304
318
327
324
320
332
348
347
336
332
341
350
345
333
335
348
353
337
324
329
341
340
327
323
334
346
340
333
335
344
353
347
341
347
362
360
343
336
346
361
364
353
355
370
381
370
358
362
373
372
363
357
359
367
360
343
333
336
335
318
304
309
317
308
288
281
288
294
284
266
266
277
279
266
258
266
282
281
266
265
275
281
272
263
270
284
282
268
260
266
274
273
261
259
270
275
267
252
255
266
267
252
242
248
260
257
243
240
256
259
249
236
240
253
247
235
231
238
247
239
226
232
252
261
250
241
249
266
265
249
237
246
259
260
256
249
253
252
238
228
243
257
249
230
224
234
247
240
224
224
235
240
228
223
233
242
240
226
216
226
249
262
289
365
461
522
514
420
312
248
212
217
213
209
199
207
223
224
211
202
214
227
222
211
209
222
233
222
211
216
229
233
224
216
223
236
236
223
224
238
245
236
224
230
242
244
241
241
252
260
256
246
249
264
272
265
256
257
268
270
261
246
250
258
252
235
231
239
235
221
210
209
216
213
202
195
200
203
194
182
192
204
204
192
184
190
200
194
179
180
194
202
200
191
195
207
211
204
197
204
218
218
208
208
225
230
219
216
225
237
238
227
228
265
257
246
247
260
273
271
263
272
293
297
283
283
296
315
316
305
307
321
330
323
314
320
337
345
335
329
343
361
358
349
353
373
383
371
352
356
370
376
371
367
367
366
354
337
340
352
353
343
336
339
347
343
332
332
343
350
339
325
326
341
345
333
317
324
345
361
380
437
524
602
633
565
446
345
288
262
259
277
302
304
293
300
308
310
301
291
292
305
306
294
293
305
315
313
305
308
327
345
341
333
344
363
369
362
363
385
408
415
409
411
431
447
439
433
438
454
462
461
463
479
495
489
482
491
510
521
509
502
509
520
517
501
495
500
502
492
478
478
490
486
470
458
468
476
469
453
451
466
474
468
456
455
465
470
461
450
459
478
475
461
460
472
481
471
456
457
470
471
459
451
457
464
453
435
430
439
440
426
418
428
437
429
410
397
405
418
416
404
400
411
414
394
Pomiar: Seba Czas badania: 35.80 sekund
