455
433
434
468
504
521
517
495
458
403
356
313
268
242
229
203
175
155
162
183
201
199
162
124
103
88
84
79
75
89
110
103
73
38
21
20
24
24
18
13
0
0
0
0
0
0
0
0
0
0
0
0
0
0
0
0
0
0
0
0
0
0
0
0
0
0
0
0
0
0
0
0
0
0
5
78
165
238
286
303
285
273
268
256
243
261
292
322
310
291
317
345
363
378
405
407
392
393
408
408
399
396
396
412
423
413
389
369
338
307
299
320
344
367
386
370
317
270
252
223
180
141
153
169
161
129
109
138
205
282
313
321
341
364
369
379
405
446
482
496
503
507
496
474
441
433
455
477
470
452
434
424
430
442
441
431
423
413
422
427
429
449
469
469
467
443
412
386
383
409
440
473
470
440
436
464
481
486
503
528
537
542
556
580
603
599
570
522
475
447
413
381
378
383
390
395
416
447
477
502
509
500
484
470
467
463
452
432
436
466
498
514
513
501
481
432
376
345
326
307
286
268
278
320
342
335
323
336
348
379
412
431
451
459
466
482
480
456
454
458
453
442
426
426
432
432
427
396
346
301
282
287
288
267
247
228
207
216
233
247
235
248
302
361
399
418
445
464
473
457
442
432
433
441
442
437
442
443
432
402
368
346
334
330
334
341
341
338
318
303
303
311
340
368
384
411
426
424
416
405
401
405
407
401
377
349
332
335
337
342
360
368
352
352
376
395
399
424
464
500
504
465
425
401
394
400
413
451
493
524
503
466
443
435
430
409
391
383
408
413
392
379
381
378
348
315
294
249
182
135
146
167
135
92
75
85
105
106
86
76
89
128
179
228
302
385
455
503
544
581
629
646
619
569
518
490
464
447
478
525
518
477
453
474
513
544
550
531
490
440
389
387
434
494
533
502
452
432
418
402
381
368
383
412
427
411
350
291
285
315
354
368
359
345
332
345
385
416
429
424
412
418
438
456
463
453
419
369
346
338
317
314
337
358
362
368
378
389
405
404
374
344
343
350
333
289
265
255
246
239
236
227
213
215
226
229
215
208
201
180
161
169
186
210
227
212
207
238
288
324
334
351
384
404
403
413
449
498
552
581
600
596
553
498
452
416
399
394
405
445
459
434
409
406
435
469
505
518
516
526
525
504
467
434
418
428
428
420
437
458
464
454
421
381
344
303
268
262
281
322
336
314
302
318
361
388
396
392
412
461
504
501
471
426
379
359
367
399
426
417
390
376
381
397
406
427
445
423
366
320
318
360
403
409
376
346
337
345
384
422
452
481
493
472
441
425
422
397
375
370
361
326
297
310
333
361
383
375
363
376
416
416
374
347
334
345
353
367
387
407
426
435
447
456
452
437
433
448
477
501
518
517
472
415
373
375
404
411
406
394
392
374
347
329
347
408
470
503
513
514
529
541
549
526
501
500
502
482
473
488
461
396
337
320
322
342
354
336
313
288
256
216
170
146
148
158
162
142
122
99
52
2
0
0
0
0
0
0
0
0
0
0
0
0
0
0
0
0
0
0
0
0
0
0
2
78
149
188
215
239
271
308
349
378
378
357
353
370
374
374
385
396
398
400
401
402
425
439
422
386
357
335
318
307
290
289
316
331
347
372
370
368
361
379
446
504
530
540
558
567
563
552
528
499
478
454
419
373
326
307
298
308
313
313
303
255
224
225
236
246
260
267
283
317
323
332
357
380
409
435
439
408
359
320
315
352
387
394
397
400
399
374
332
305
346
429
483
478
454
434
410
391
369
374
386
378
372
366
373
396
399
384
382
392
404
420
427
418
412
417
443
474
489
486
464
438
398
352
346
362
385
395
415
400
390
388
380
387
396
382
377
377
369
353
361
403
441
443
423
436
455
461
443
438
434
427
425
398
348
312
303
276
237
227
258
278
279
288
306
319
311
297
272
251
245
247
253
243
271
288
352
409
447
455
429
383
367
373
358
339
338
318
313
336
365
392
387
387
411
436
436
430
432
419
411
430
467
503
539
570
569
566
553
534
525
503
460
414
369
364
373
392
421
455
467
456
456
439
403
369
346
317
296
284
273
285
336
402
464
490
476
451
444
445
439
405
364
356
362
359
376
423
465
484
501
525
566
601
596
581
583
597
612
633
656
658
657
633
559
517
511
504
490
473
445
417
437
471
490
496
516
519
484
436
407
394
397
423
444
452
454
439
438
441
451
469
454
423
395
389
416
436
447
441
420
396
385
396
408
400
398
418
438
436
424
412
405
414
412
399
374
356
356
365
355
324
275
219
188
161
142
124
132
169
226
267
274
283
313
345
347
349
368
362
322
273
238
207
200
233
260
257
252
307
373
405
412
417
419
419
401
374
365
379
408
419
404
401
441
489
514
503
469
468
476
456
410
353
293
224
153
92
57
32
0
0
0
0
0
0
0
33
123
189
226
275
329
362
379
393
407
424
421
421
434
430
389
359
336
308
292
310
342
361
358
379
410
437
472
517
539
541
561
579
569
533
489
470
460
459
458
467
476
478
476
492
521
546
560
575
583
572
542
499
458
452
496
545
586
592
562
532
507
486
485
496
512
524
526
502
481
487
483
450
435
430
422
434
465
492
503
479
456
467
501
544
559
550
549
540
534
534
534
551
577
572
524
469
450
440
404
406
436
476
513
535
534
530
520
499
487
490
491
481
458
428
431
449
455
450
452
452
460
454
424
405
396
384
371
358
363
363
351
342
328
330
347
357
333
314
320
358
387
379
381
400
390
362
341
333
317
311
291
263
246
238
245
260
281
320
354
338
281
238
221
208
195
195
207
192
157
99
71
93
126
137
137
142
156
173
177
188
201
214
187
140
113
119
120
115
108
104
113
132
132
101
89
111
125
112
87
91
109
108
122
153
194
239
267
286
299
327
348
344
320
294
276
253
232
221
228
257
288
333
383
400
396
397
404
420
441
466
488
478
470
468
444
418
395
409
461
517
531
507
464
428
437
482
517
516
502
524
577
636
655
656
656
650
605
543
514
494
463
434
420
427
439
424
416
424
425
401
368
354
367
393
416
418
407
401
401
409
401
389
375
370
363
373
399
401
367
335
347
367
372
350
317
302
307
325
337
339
332
303
270
237
221
232
262
272
246
215
215
214
191
162
172
202
223
223
240
271
292
319
355
386
389
382
378
361
349
343
350
365
366
371
374
361
353
368
412
459
478
457
449
460
474
491
525
568
565
526
499
495
499
475
434
407
418
456
468
427
385
379
393
413
422
428
430
422
414
421
437
445
423
388
382
400
422
411
394
398
413
424
429
459
493
521
522
525
532
560
589
574
527
503
513
531
517
490
457
426
381
350
369
400
387
352
321
315
346
366
365
348
345
370
415
451
477
460
417
363
345
368
377
384
396
407
417
445
498
538
551
551
549
552
540
544
558
549
517
479
453
434
400
365
370
380
370
352
371
418
459
479
456
422
402
388
361
320
264
204
171
155
144
164
175
179
159
135
112
106
123
159
196
226
262
297
282
250
249
239
209
202
222
220
195
184
206
229
244
261
280
324
359
346
308
286
270
247
228
223
238
262
275
262
221
182
145
117
90
83
109
141
181
226
262
270
296
326
345
370
386
371
351
345
344
336
336
368
418
451
461
415
345
323
361
405
426
427
438
456
463
437
408
357
284
212
182
188
196
161
121
114
128
145
160
169
202
244
298
345
396
427
420
416
429
472
516
537
493
407
328
292
300
337
370
363
343
343
384
438
470
463
435
430
449
478
507
525
530
503
448
400
415
477
538
568
585
580
561
530
489
476
510
564
596
607
602
605
586
553
512
502
500
503
476
422
362
320
296
295
296
273
226
185
164
154
134
104
84
71
62
73
96
93
78
53
22
0
1
21
33
45
36
8
0
0
0
0
0
0
0
0
0
0
4
49
85
110
139
163
206
250
286
318
344
371
413
422
406
383
356
356
386
420
442
437
428
418
407
399
406
392
360
329
318
322
327
324
300
278
279
271
250
223
230
282
334
362
392
444
484
496
503
498
477
432
372
339
357
380
389
394
402
437
466
489
537
570
551
529
512
485
470
473
504
522
499
481
477
448
404
381
390
402
409
406
406
420
431
445
449
437
440
436
435
469
529
589
617
607
587
586
599
604
596
587
574
551
526
536
572
605
613
584
542
522
527
540
525
479
446
444
450
479
534
577
590
565
528
520
539
550
543
539
512
454
392
372
405
457
467
439
391
349
316
285
261
264
284
320
335
331
328
351
391
432
449
421
375
324
309
314
279
241
252
275
283
271
257
268
303
331
350
364
373
350
324
300
283
269
254
246
236
223
212
199
197
199
202
181
166
181
193
192
163
134
120
134
154
168
191
210
204
184
162
143
130
140
151
144
125
128
164
205
235
256
282
311
339
359
346
331
327
328
333
329
331
340
346
327
284
237
198
168
147
122
99
72
51
49
54
47
23
3
27
83
127
148
172
219
274
317
319
303
284
286
321
349
358
367
378
402
414
392
333
289
300
353
397
432
442
447
443
416
399
393
395
395
395
381
380
368
339
324
332
337
341
352
371
390
374
337
316
321
331
345
341
346
380
423
468
484
481
467
444
428
432
421
386
363
350
333
314
312
337
340
327
315
284
254
242
244
241
245
259
259
261
292
328
344
346
341
350
376
393
400
384
341
292
266
265
290
330
362
386
403
414
437
480
507
506
473
443
450
479
486
477
471
451
402
366
366
371
347
288
256
281
338
371
373
353
323
302
284
276
264
261
275
295
325
360
361
363
401
452
478
476
448
431
443
442
441
441
443
444
444
416
379
359
341
316
309
322
324
303
280
268
273
268
239
185
156
151
152
147
126
108
105
110
117
119
126
151
170
167
151
126
79
55
75
96
84
55
42
47
97
184
253
317
372
396
414
440
452
447
440
438
439
424
407
402
406
412
435
464
492
483
455
429
392
361
334
317
313
313
316
321
351
382
404
418
427
436
449
440
420
406
395
385
374
371
375
379
383
349
316
319
350
383
383
367
354
371
399
429
487
543
566
579
594
598
551
491
467
480
504
533
538
527
533
558
568
534
468
426
437
469
464
454
428
379
330
289
300
329
346
333
312
291
296
300
288
303
354
399
409
395
385
369
333
312
337
373
383
383
357
327
331
344
343
352
377
412
453
489
505
484
431
399
418
469
505
496
495
507
499
476
450
442
460
471
439
374
336
323
318
321
316
318
336
370
405
427
411
377
339
304
289
283
263
236
228
224
216
200
189
200
224
250
277
310
370
434
485
487
440
374
338
344
391
443
469
459
458
476
487
483
485
509
527
509
469
427
397
380
399
442
487
505
462
411
389
404
429
437
426
416
394
361
364
384
384
349
302
283
267
251
257
260
242
199
151
104
83
96
131
164
183
186
201
223
263
296
317
317
304
302
338
358
350
348
377
431
471
472
457
433
414
412
416
408
391
394
432
494
541
558
558
548
553
583
594
584
586
612
657
659
660
660
661
661
661
661
661
661
660
661
660
660
659
658
656
630
564
514
508
518
496
451
419
384
334
286
268
264
257
235
223
194
180
171
157
162
194
219
239
281
348
398
429
452
466
456
431
422
401
386
397
401
391
357
349
348
339
313
292
298
296
275
243
212
165
128
120
108
111
137
181
238
296
343
381
399
389
383
390
395
375
334
328
362
401
407
391
368
330
310
311
292
234
173
130
104
109
96
75
76
94
119
126
148
189
236
255
244
236
235
235
239
226
214
217
233
245
257
285
307
304
303
328
361
381
408
416
396
356
323
323
334
324
318
322
350
370
391
402
366
305
288
310
344
342
324
310
298
323
365
407
444
429
370
307
289
324
360
376
368
361
359
346
349
366
390
393
381
374
380
404
433
478
499
481
453
413
349
293
263
248
229
194
165
153
170
205
235
236
178
131
103
107
122
135
148
173
190
176
137
102
92
122
164
180
172
152
168
205
225
230
262
317
342
336
352
384
407
407
393
402
417
421
423
437
442
427
421
418
413
388
357
327
303
289
265
239
216
209
235
280
315
328
321
330
375
430
431
382
356
360
368
377
363
336
327
330
326
306
314
355
407
426
413
384
356
366
406
438
450
445
416
406
425
453
461
447
436
459
470
459
445
424
396
353
335
347
361
364
357
360
356
337
313
316
337
362
385
395
411
439
453
423
377
335
318
324
332
348
374
397
418
421
409
394
377
344
294
241
214
202
197
218
262
314
348
371
388
404
411
392
344
303
287
261
202
132
72
38
21
9
0
0
0
0
0
0
0
0
0
0
0
0
0
0
0
0
76
184
234
267
305
313
276
256
265
269
247
237
252
261
275
296
296
295
324
365
410
454
453
426
395
374
383
402
413
413
400
387
402
425
441
469
460
409
381
376
393
405
400
397
399
387
344
303
306
355
411
427
441
456
459
459
453
444
442
460
499
562
624
655
658
659
660
660
660
660
660
660
660
660
660
660
660
660
659
659
657
656
655
656
658
658
659
659
659
659
657
650
623
612
630
640
628
596
550
503
508
558
594
617
650
657
658
658
657
655
654
649
651
651
625
559
482
441
389
337
302
276
273
305
391
488
514
473
442
421
416
409
385
380
369
347
341
377
419
435
427
392
351
340
343
351
357
360
375
383
386
347
300
265
242
243
246
250
241
233
241
245
237
213
177
160
169
181
176
172
186
200
201
189
165
144
162
189
196
203
206
195
184
175
187
191
181
181
195
220
264
311
337
339
320
281
262
254
263
312
367
406
429
456
461
435
392
364
346
336
341
325
303
297
289
269
249
242
236
207
159
122
97
66
44
22
10
11
0
0
0
1
1
2
7
8
0
0
0
0
0
0
0
0
0
0
0
0
0
0
0
0
0
0
45
139
195
190
168
173
181
194
215
224
237
238
238
255
295
359
375
348
324
308
289
292
299
315
346
405
454
475
473
457
444
442
451
448
434
400
360
342
345
339
305
252
220
200
183
211
276
332
353
352
341
332
334
333
312
299
273
251
253
256
252
244
233
243
264
306
336
382
427
449
454
430
387
339
305
275
239
217
201
177
147
130
140
163
188
212
227
246
275
295
295
286
267
279
315
345
373
423
457
453
437
437
468
489
474
443
440
444
443
408
380
389
391
384
373
370
363
341
334
352
361
348
329
313
307
332
369
372
356
358
407
446
428
384
349
353
385
399
392
392
401
408
402
391
391
388
394
414
444
487
524
518
509
524
554
569
570
580
607
615
595
564
527
493
473
454
425
425
452
471
468
496
549
577
573
532
486
478
497
510
514
527
533
546
562
565
548
552
571
584
590
608
648
653
656
658
659
660
660
660
660
660
660
660
660
659
655
618
571
545
544
548
526
477
463
481
517
525
493
465
436
386
359
391
441
472
482
472
467
468
455
447
460
468
435
388
359
375
414
431
419
421
435
443
446
435
423
427
442
448
443
429
409
406
423
448
469
511
554
578
612
641
656
657
657
637
575
527
517
545
577
604
616
626
651
657
659
660
661
661
662
662
662
662
662
661
660
660
658
617
480
380
357
386
413
423
433
449
463
480
480
496
529
557
583
591
584
551
532
520
503
500
495
484
452
430
432
438
451
446
403
337
279
247
223
206
180
156
150
158
187
241
285
311
341
394
416
365
332
327
331
345
359
359
352
350
355
367
375
376
346
305
292
300
299
279
244
215
220
240
262
298
303
293
289
264
242
239
205
146
101
83
68
45
24
23
52
65
42
21
0
0
0
0
0
0
0
0
0
0
0
0
0
0
0
0
0
0
0
0
0
0
0
0
69
148
188
198
213
245
300
352
377
357
329
313
300
301
348
418
462
474
491
492
457
420
412
405
415
439
468
494
503
465
396
342
306
288
287
296
315
338
374
397
408
410
393
364
346
334
330
324
304
265
223
196
191
170
153
143
153
182
208
212
195
170
149
131
142
158
156
143
123
86
50
28
24
60
69
39
8
0
0
0
0
0
0
0
0
0
0
0
0
0
0
0
7
132
246
279
304
379
437
448
439
447
478
501
511
514
521
523
502
458
413
382
364
368
379
408
423
401
373
356
342
329
314
324
335
311
293
274
258
261
280
319
364
390
384
349
313
297
309
304
293
276
259
255
262
265
280
317
350
363
359
334
309
312
329
357
378
387
403
401
383
352
318
322
366
409
433
421
407
432
472
470
439
398
368
374
383
368
360
362
356
356
366
393
416
448
476
492
529
604
657
658
657
656
654
636
605
570
551
525
484
461
454
440
393
350
327
319
328
351
377
398
431
456
464
442
425
450
460
450
456
454
444
411
390
383
366
354
345
345
348
341
364
400
419
416
393
370
362
375
391
408
427
407
370
363
355
344
339
318
290
268
251
233
219
199
188
192
201
222
250
273
280
262
260
269
262
249
230
202
187
168
132
116
118
127
137
148
180
223
246
259
257
252
242
235
240
260
291
316
325
314
312
341
372
393
394
397
399
405
432
457
447
412
360
342
368
426
461
453
440
416
398
412
437
441
406
360
345
360
384
375
331
291
279
269
258
249
261
297
328
330
307
277
298
359
393
390
375
373
360
337
317
347
410
465
471
437
419
424
435
431
423
431
446
446
445
444
450
456
462
484
521
567
584
541
497
475
469
475
483
485
498
508
504
467
423
395
393
406
432
446
452
437
417
424
458
469
440
418
424
429
425
441
459
448
443
446
443
439
440
427
415
439
477
501
476
442
437
443
453
449
436
415
387
360
335
332
324
306
279
248
245
265
261
236
229
257
287
322
355
377
389
409
420
405
389
386
386
369
372
397
399
383
360
332
270
226
197
174
133
66
0
0
0
0
0
0
0
0
0
0
0
0
0
0
0
0
0
0
0
0
0
0
0
0
0
0
0
0
0
0
0
0
20
115
203
253
260
269
292
321
358
390
404
400
392
382
378
396
420
453
476
465
432
432
449
472
497
507
534
585
601
599
588
591
588
572
572
565
566
598
617
617
642
658
658
658
655
642
621
602
582
587
606
627
638
641
647
656
658
658
652
609
544
479
446
457
483
495
500
497
485
473
474
478
466
437
412
387
367
377
413
456
490
501
530
589
624
604
571
573
588
613
630
638
633
615
606
597
583
567
555
562
564
548
524
504
508
524
537
517
465
430
435
484
558
601
623
639
652
655
657
658
658
658
657
651
635
604
588
571
552
569
620
653
657
658
660
661
661
661
662
662
662
662
662
662
662
662
662
662
662
662
662
662
662
662
662
661
660
660
660
659
658
656
642
585
536
508
480
473
490
490
474
457
436
406
397
409
418
401
376
356
355
325
272
203
159
150
164
179
183
167
168
180
207
254
318
367
386
388
411
438
444
399
348
334
354
367
356
333
302
296
332
351
355
348
339
330
323
324
322
294
247
215
205
188
160
110
91
118
138
120
106
128
170
183
174
153
136
121
90
64
46
0
0
0
0
0
0
0
0
0
0
0
0
0
0
0
0
0
0
0
31
105
148
174
185
191
208
226
241
251
252
264
278
283
275
244
195
159
133
109
89
78
91
105
101
94
98
94
80
49
35
54
79
93
99
106
134
173
204
203
280
305
371
391
385
365
361
376
400
426
426
401
370
355
346
353
381
393
391
368
350
361
378
390
382
386
390
377
357
359
388
413
436
435
433
479
542
574
593
607
613
619
610
598
585
554
512
466
436
415
405
411
424
403
371
352
366
399
447
492
500
481
452
447
471
491
506
505
474
455
441
418
388
361
340
332
357
386
394
380
360
339
327
306
288
292
307
323
316
280
220
146
76
18
0
0
0
0
0
0
0
0
0
0
0
0
0
0
0
0
0
0
0
0
0
0
0
0
0
0
0
0
0
0
0
0
0
0
0
0
0
0
0
0
0
0
0
123
326
447
476
478
497
497
489
495
500
480
471
497
522
532
510
503
546
595
594
553
496
455
465
479
459
434
454
488
503
500
496
486
485
507
546
573
563
530
522
546
575
592
608
605
597
603
619
637
632
614
608
604
606
595
572
542
520
532
563
593
629
655
656
656
655
650
638
634
639
620
589
595
618
646
656
656
656
655
645
607
588
604
622
641
656
658
659
660
661
661
660
660
658
652
648
631
604
584
585
596
598
581
563
572
602
627
615
567
534
501
487
504
538
572
599
596
567
551
562
566
537
484
453
444
424
396
376
386
435
505
531
509
464
455
483
493
501
501
492
493
507
499
474
466
461
474
499
502
469
429
412
391
370
350
357
384
393
358
291
271
308
336
334
333
339
338
321
282
248
229
236
259
275
285
288
281
257
243
256
287
295
268
269
298
326
352
399
420
424
423
435
449
447
452
456
463
460
451
467
506
538
530
517
513
486
449
419
385
350
334
333
322
307
299
299
307
320
350
365
335
312
332
369
385
384
386
378
347
310
297
280
275
281
298
329
372
397
409
425
422
409
400
402
407
410
413
416
417
414
411
417
394
359
352
381
413
428
441
449
451
460
493
523
533
503
461
444
447
457
455
455
481
506
481
425
373
350
359
374
389
405
432
434
405
382
362
336
312
298
316
379
414
424
420
393
354
331
321
285
263
267
285
313
357
407
449
461
458
441
401
339
278
242
244
279
323
347
372
379
359
318
269
242
258
263
232
207
208
224
219
204
178
164
185
230
270
309
331
334
327
350
396
434
447
440
428
403
348
295
286
319
329
310
295
314
357
396
422
454
478
447
369
321
336
375
425
441
422
411
429
434
401
382
378
364
358
359
373
381
386
391
355
309
262
208
180
176
180
150
109
78
60
38
0
0
0
0
0
0
0
0
0
0
0
0
0
0
0
0
0
0
0
0
0
0
0
0
0
0
0
0
0
0
96
216
276
281
239
213
234
278
316
327
319
282
244
208
168
144
154
157
116
85
77
70
72
75
44
14
4
2
0
0
0
0
0
0
0
16
48
79
109
136
147
171
211
264
312
339
369
429
466
476
505
544
571
574
573
582
578
548
524
488
455
453
487
538
561
553
557
584
600
568
526
517
534
558
571
587
606
591
563
579
626
622
565
523
546
579
610
631
636
646
652
656
657
657
659
659
659
659
660
660
658
656
638
619
617
613
599
568
531
492
450
411
394
382
374
363
356
373
416
457
487
510
533
554
575
576
584
620
655
657
658
658
658
660
660
661
661
661
660
660
657
634
576
537
532
549
566
569
539
520
519
510
463
393
362
363
345
322
317
322
346
367
376
387
410
428
412
386
384
414
454
473
493
539
571
561
531
520
541
555
526
477
444
424
406
352
289
270
292
303
301
314
328
372
400
386
378
374
349
334
358
407
437
424
399
392
390
369
345
314
290
277
304
361
427
466
478
468
418
370
340
330
353
377
399
429
441
428
398
387
381
388
402
433
466
467
441
435
446
437
408
367
355
376
401
408
404
410
431
478
503
493
478
479
466
427
418
462
507
530
533
536
549
545
514
470
433
408
398
376
362
357
367
345
301
290
306
342
347
328
316
317
289
256
239
232
202
179
149
126
133
152
176
197
229
221
190
160
118
92
87
84
73
43
0
0
0
0
0
2
16
45
85
111
127
134
156
179
197
218
229
261
302
319
300
314
338
322
274
244
258
284
289
276
252
236
241
255
243
231
250
270
248
239
253
275
285
278
285
310
308
307
322
354
357
321
262
222
200
185
168
144
114
77
35
0
0
0
0
0
0
0
0
0
0
0
0
0
0
0
0
0
0
0
0
0
0
0
0
0
0
0
0
0
0
0
0
0
0
0
0
0
0
0
0
0
0
0
0
0
0
0
0
0
0
0
0
0
0
0
0
0
0
0
0
13
102
186
213
215
236
284
335
373
406
464
519
533
516
493
504
563
624
635
623
640
659
660
661
661
661
662
662
662
662
662
662
662
662
662
662
663
663
662
663
662
662
662
662
662
662
663
662
662
662
662
662
662
663
663
663
663
662
663
662
662
662
662
662
662
662
662
662
661
Pomiar: B_lidia Czas badania: 22.47 sekund
