362
323
306
294
336
369
338
294
306
354
365
321
289
319
365
353
306
297
341
373
342
303
320
372
380
335
310
352
400
384
334
326
370
396
358
311
322
366
364
315
289
323
363
341
291
289
336
359
320
282
306
355
353
307
285
320
361
346
317
352
442
512
518
515
539
558
505
393
309
306
330
314
285
299
348
361
317
282
310
357
349
300
288
330
365
337
294
304
353
365
321
292
324
371
360
314
306
349
379
346
304
320
369
382
338
311
343
385
371
327
323
368
396
363
324
344
394
401
356
332
370
414
397
349
347
392
414
375
336
353
397
392
341
316
349
384
357
307
307
351
367
325
288
310
357
351
302
285
324
360
333
287
294
342
359
318
285
313
359
349
300
285
326
360
332
290
299
346
356
314
284
314
359
346
298
288
331
363
331
286
298
346
354
309
282
316
360
341
292
288
333
361
324
282
301
350
354
308
283
317
358
338
291
290
336
361
324
284
305
354
354
308
288
324
362
337
291
295
344
365
324
285
310
359
355
310
294
337
380
358
315
320
366
385
350
320
349
394
383
332
315
351
382
349
300
304
350
360
316
283
312
355
341
294
285
328
358
327
283
297
344
348
301
279
326
396
420
421
462
549
597
548
454
400
380
338
270
250
305
360
342
292
288
333
357
320
281
302
351
351
303
282
320
361
339
292
294
343
363
325
288
313
362
359
312
295
336
375
355
307
315
363
381
340
308
337
384
378
333
323
366
401
372
328
340
391
405
364
333
365
410
399
349
338
378
405
370
323
331
375
379
330
298
326
368
349
297
289
332
360
324
282
298
346
351
305
281
317
358
340
291
288
334
358
322
282
302
351
352
305
282
319
361
338
290
292
340
361
321
284
308
356
351
304
286
325
362
335
289
294
342
359
318
283
309
356
348
299
285
328
364
334
289
298
348
359
315
282
314
360
349
301
292
336
367
335
292
305
353
362
317
288
320
364
349
300
294
339
367
332
290
307
355
358
313
288
324
367
348
299
297
345
370
333
294
318
372
378
333
311
348
392
374
330
334
379
398
356
313
330
373
366
315
295
332
368
338
288
292
340
358
316
282
310
356
349
302
287
327
357
328
291
318
398
457
463
469
535
592
555
437
344
328
332
296
264
293
352
362
314
283
315
360
344
294
286
332
361
328
286
304
354
360
315
291
327
371
351
303
302
350
378
342
301
321
370
373
327
307
345
387
366
320
323
373
396
358
321
348
398
397
350
333
374
414
391
344
349
399
417
375
338
364
408
396
340
319
356
388
357
307
311
355
364
318
283
311
358
347
297
284
327
359
328
284
296
347
357
313
281
313
359
345
296
290
335
365
331
287
304
353
357
311
285
320
363
344
296
293
339
366
327
286
306
357
357
308
283
320
362
340
293
293
342
363
324
285
309
357
354
308
289
329
366
339
290
295
345
364
324
289
316
363
354
303
289
333
370
339
291
299
350
364
321
288
318
364
352
303
292
336
370
338
293
304
352
362
318
289
322
368
353
303
296
343
372
337
295
315
368
378
335
310
344
389
377
333
332
378
401
361
316
332
377
375
324
295
327
367
345
294
293
337
359
320
282
306
356
353
304
286
326
363
333
289
306
373
425
429
441
508
586
575
491
413
386
367
312
257
281
344
364
320
285
312
360
350
299
288
333
366
333
288
302
352
363
318
288
321
368
352
304
298
345
376
342
300
316
368
374
329
304
341
386
367
317
315
364
393
360
320
342
395
399
353
332
370
412
392
345
347
397
420
379
340
362
408
400
345
323
359
394
365
311
310
355
368
324
286
311
357
349
298
282
323
359
329
284
294
344
357
312
279
310
359
348
298
286
329
363
330
285
299
349
358
312
281
315
360
344
320
338
366
328
283
299
349
354
307
279
314
357
339
292
290
336
361
324
284
303
350
351
304
282
320
361
338
290
291
339
361
323
284
308
356
354
306
286
326
365
338
292
298
346
363
322
286
314
362
355
305
290
332
367
339
295
303
353
367
324
293
327
379
372
324
312
357
393
365
322
336
385
393
345
310
337
376
356
302
292
335
363
326
281
298
347
351
306
280
316
359
340
293
291
335
353
314
283
322
401
447
450
470
546
595
544
436
365
351
335
282
254
296
354
352
301
280
319
359
334
285
290
342
361
320
284
313
363
355
305
291
333
370
342
296
304
354
368
325
294
325
373
363
316
307
350
383
351
309
325
377
388
346
318
353
400
386
338
333
381
412
379
335
352
403
410
362
334
368
408
386
331
321
364
387
345
300
315
361
359
309
284
319
359
335
288
289
337
356
316
278
304
352
347
299
281
323
362
335
287
292
343
360
319
282
309
358
352
301
286
327
363
332
285
295
345
359
315
281
311
359
347
297
285
330
363
330
284
297
347
357
312
280
313
360
345
294
287
332
362
328
286
303
353
358
311
284
319
362
343
295
294
341
365
326
286
307
355
355
307
285
324
365
343
295
297
345
366
326
287
311
361
358
309
291
330
369
343
296
300
349
368
326
291
319
366
358
309
296
339
378
352
309
323
375
388
347
318
352
400
388
336
323
362
389
352
304
316
361
367
320
288
318
361
345
296
289
335
363
327
284
301
352
356
306
277
318
375
381
372
417
508
571
555
502
468
442
374
283
245
294
354
342
295
294
338
360
321
282
306
355
353
307
288
327
364
339
293
301
351
369
327
292
320
368
362
314
301
343
381
352
308
319
369
385
344
310
340
390
381
332
324
370
402
372
330
346
398
409
366
338
371
417
402
353
348
392
419
380
332
344
389
390
339
308
340
379
355
302
296
341
364
324
282
303
352
351
303
280
318
359
336
288
289
338
360
321
282
306
356
352
304
286
326
365
339
291
297
345
361
318
284
311
358
351
302
288
329
364
333
287
296
347
360
316
283
313
360
349
299
288
331
363
330
287
301
351
359
314
286
320
362
345
296
288
334
364
329
288
305
353
357
312
286
322
366
347
297
294
341
366
328
288
310
360
360
312
289
328
370
348
299
299
346
367
327
290
315
363
359
311
294
335
375
347
296
302
353
372
330
293
320
369
361
312
296
339
377
350
306
319
372
388
344
313
349
400
391
340
328
369
398
361
311
320
366
372
322
289
320
363
346
298
292
337
365
330
288
306
356
362
316
285
314
363
358
331
362
455
526
527
510
527
541
476
352
275
290
335
329
295
301
348
366
324
284
308
358
356
307
288
329
370
344
297
302
351
369
327
291
318
367
362
316
304
346
381
351
306
317
368
383
340
308
339
388
379
331
322
369
403
372
329
344
396
407
364
337
373
419
405
356
350
394
425
389
342
352
396
397
347
317
347
385
361
309
304
347
368
328
285
304
353
354
303
279
317
358
336
288
289
336
359
322
284
307
354
350
304
286
325
364
338
291
296
345
363
320
283
311
360
352
302
287
328
363
334
288
297
346
360
317
284
314
360
349
298
288
332
365
330
283
297
349
359
313
282
314
360
346
297
290
336
365
332
287
303
356
361
315
287
321
365
346
298
296
342
366
328
287
308
358
359
311
289
326
367
345
296
297
345
366
327
289
314
362
359
310
292
331
370
346
303
314
367
389
348
310
339
392
389
342
328
368
402
369
318
321
364
373
326
290
317
362
349
298
287
330
364
332
288
300
349
358
313
283
314
356
342
303
313
385
457
473
475
528
581
559
457
361
333
338
305
266
282
338
364
324
282
301
351
354
307
283
320
361
339
290
292
354
328
290
313
362
360
311
294
336
376
351
304
308
357
378
338
302
330
381
376
327
312
354
393
366
320
331
384
399
358
327
358
406
397
349
339
383
416
383
337
347
394
398
348
314
343
385
365
310
299
340
367
330
285
299
347
352
306
278
311
354
335
286
284
333
359
321
280
300
350
351
303
280
319
361
338
289
289
338
360
321
282
304
353
351
301
282
321
360
334
286
291
340
358
316
280
306
353
348
300
284
325
361
333
286
293
343
357
314
282
312
358
346
297
286
330
363
331
285
297
347
358
313
284
315
358
343
294
288
333
364
330
287
303
353
358
311
285
320
364
346
297
294
341
368
330
289
309
358
359
311
289
327
370
346
296
297
345
367
327
288
312
362
358
309
291
332
371
345
299
305
357
379
341
309
336
381
377
335
324
367
403
371
320
325
370
380
333
297
322
367
351
298
286
330
362
329
285
298
349
360
315
284
314
357
340
293
294
352
406
412
418
478
566
590
528
440
396
373
317
257
263
329
365
330
286
304
352
352
306
283
320
363
343
295
296
343
365
327
288
313
364
362
313
296
337
376
349
301
308
359
378
337
302
333
384
376
326
312
359
399
371
325
335
387
402
360
330
365
414
402
352
342
389
423
392
344
356
407
414
363
327
355
396
375
320
309
351
376
337
289
303
351
352
304
277
315
360
339
289
286
332
356
317
277
300
350
349
302
281
319
360
336
288
291
341
362
320
282
305
355
352
302
282
323
362
333
285
290
341
360
319
282
308
354
345
297
284
326
361
331
285
297
347
359
315
281
312
359
349
299
288
332
364
331
286
299
351
360
313
283
317
363
348
298
291
337
366
330
288
304
353
357
313
289
326
367
347
298
296
345
369
330
290
311
360
360
312
291
329
369
345
296
298
348
369
329
291
316
365
360
312
295
335
375
352
309
319
371
390
349
317
349
397
392
342
325
365
397
362
311
316
361
370
323
287
316
362
349
300
289
333
365
332
288
302
352
359
312
281
312
362
362
337
372
467
541
543
515
517
507
432
315
253
281
336
334
293
291
337
360
320
278
301
355
356
308
286
325
368
345
296
298
347
369
330
291
314
363
361
314
297
338
379
354
308
315
364
381
341
308
338
388
381
333
321
366
404
376
332
343
394
409
369
338
370
416
405
357
348
392
424
388
340
350
396
400
349
314
344
384
364
310
298
340
368
330
285
302
351
355
308
281
316
360
339
290
288
336
362
325
284
305
354
356
309
287
324
365
341
292
294
344
366
325
284
309
360
355
305
286
327
367
340
291
296
346
364
323
286
313
361
352
303
288
330
367
338
292
301
351
364
321
288
318
365
352
302
292
336
370
338
292
303
354
364
320
290
324
369
353
303
296
341
372
338
297
313
363
368
320
293
326
369
351
304
303
349
372
333
292
312
362
366
319
295
331
373
351
302
302
351
373
336
303
331
384
384
334
315
360
404
381
334
338
385
399
352
311
334
378
368
314
295
334
368
337
291
300
350
362
317
285
316
362
352
302
288
328
362
339
311
354
449
511
508
508
542
564
491
367
297
308
332
311
283
305
354
358
309
281
316
361
344
295
291
338
365
330
290
309
358
361
316
293
330
371
350
304
307
354
375
336
300
326
375
374
327
308
347
388
364
318
324
375
397
358
324
352
402
397
351
338
379
417
391
346
355
404
416
371
335
362
404
390
337
322
359
386
348
300
311
358
364
315
283
314
359
344
293
283
327
358
324
280
296
347
356
310
281
315
359
343
296
291
335
360
323
283
303
352
353
306
284
324
366
342
293
291
336
359
324
288
310
354
351
304
286
324
363
338
291
294
340
356
316
282
310
358
351
303
289
330
364
334
289
296
344
357
304
318
363
350
301
290
331
363
332
288
300
350
362
319
291
322
365
350
302
301
352
385
350
306
324
378
389
346
322
356
397
374
320
311
354
375
334
288
303
350
349
301
277
315
356
335
288
288
335
358
321
283
303
348
342
300
294
353
423
443
446
495
573
584
504
409
370
362
322
265
263
320
364
334
285
290
338
354
313
280
308
354
345
298
285
327
362
331
287
300
349
361
317
289
321
367
354
307
301
345
375
343
302
317
368
377
333
308
343
386
370
324
322
372
400
364
326
348
398
401
358
337
373
414
393
345
344
387
404
361
320
337
380
373
321
299
335
367
339
289
292
339
356
315
280
305
351
344
296
281
323
359
332
287
293
342
357
314
283
312
357
347
298
287
329
360
330
286
298
347
357
313
283
315
360
346
296
288
333
362
328
285
301
351
357
311
285
320
362
342
294
292
337
362
326
286
306
354
353
304
282
320
363
341
294
295
343
365
325
288
310
359
356
308
289
328
368
342
295
300
348
366
326
290
315
360
354
307
294
335
369
338
290
299
349
366
326
296
330
383
376
327
314
360
396
368
327
339
385
392
343
308
337
377
358
306
294
336
363
328
285
300
349
354
309
284
320
363
345
295
289
331
357
331
310
362
455
507
499
507
551
568
476
345
286
308
329
304
281
311
359
351
300
281
321
361
335
289
296
345
362
320
285
312
361
356
307
292
336
373
343
298
308
359
375
333
301
333
380
369
322
313
357
391
359
315
330
382
393
349
322
359
407
394
346
341
388
417
383
342
360
410
416
366
336
369
408
384
330
323
365
385
343
299
316
362
359
307
282
317
356
331
284
286
335
358
318
279
304
353
349
301
282
322
360
334
287
293
344
361
318
282
309
357
349
301
287
330
365
333
285
295
345
356
312
280
311
359
347
297
286
331
364
331
285
298
349
359
313
282
315
361
346
296
288
333
362
327
284
302
353
359
311
285
319
362
342
293
291
338
363
325
285
306
357
357
309
286
324
365
343
295
296
343
364
325
288
314
364
358
308
291
334
372
345
301
313
369
390
346
308
339
392
387
341
328
367
398
362
311
319
365
373
323
289
320
365
349
296
283
327
361
329
285
299
350
359
314
283
311
357
352
320
341
429
509
516
506
528
559
515
396
301
297
329
323
292
298
345
365
322
280
304
358
359
308
286
325
366
344
295
296
344
367
328
291
315
364
362
315
297
337
378
350
303
310
362
381
337
301
330
380
375
327
313
358
396
369
324
338
391
405
362
332
365
415
404
352
339
384
419
387
340
349
394
398
348
313
341
381
362
309
301
343
368
330
284
300
348
351
303
279
316
360
339
288
287
336
360
320
281
304
354
353
304
283
322
362
338
290
294
343
365
323
284
309
357
352
303
284
326
364
336
288
294
344
361
318
282
309
356
348
299
284
327
363
332
285
295
346
358
313
281
313
360
346
296
286
330
362
329
284
299
349
359
314
287
326
376
363
314
307
354
388
359
319
336
383
384
332
302
335
374
350
296
289
334
357
316
275
297
346
345
297
277
316
357
333
284
287
335
354
309
272
308
375
402
398
429
514
589
563
481
432
415
370
289
240
281
348
347
296
279
321
356
325
278
288
339
351
309
278
310
357
344
295
288
333
366
333
290
306
357
365
320
293
327
373
357
308
304
350
379
344
304
323
376
381
336
314
352
396
378
331
330
379
406
370
330
353
404
404
354
331
368
406
379
327
326
369
385
339
298
318
362
355
305
286
326
362
332
283
289
338
355
313
278
306
353
343
293
280
324
359
329
283
295
345
355
310
279
311
357
344
295
286
331
362
330
285
299
348
354
309
281
315
359
340
292
288
333
360
322
280
300
350
352
305
281
366
344
294
291
338
361
323
283
306
356
354
306
287
326
364
339
291
296
344
363
321
284
310
360
355
306
288
330
367
339
293
302
351
366
322
287
316
365
355
306
295
338
374
346
305
321
374
386
340
311
349
398
387
336
325
368
396
358
309
320
365
367
318
288
321
363
345
295
290
336
363
327
287
307
357
359
311
285
320
368
358
333
371
468
537
537
517
531
530
451
328
264
290
339
329
290
297
345
361
318
280
307
355
350
304
289
332
368
338
292
302
352
366
322
290
322
370
361
314
304
347
381
351
307
320
371
383
339
311
347
393
379
329
323
371
404
372
331
348
398
407
365
341
377
421
401
352
352
401
427
387
341
357
402
400
346
317
350
388
361
308
304
350
369
327
286
308
356
352
303
283
323
364
339
291
294
343
361
320
285
311
359
354
305
289
331
368
340
295
303
351
364
320
287
316
362
352
304
293
336
367
334
288
301
352
363
320
287
316
360
346
298
291
338
367
330
287
304
354
359
313
286
321
364
344
297
295
342
367
329
288
307
358
359
312
290
329
369
346
297
298
347
368
327
290
313
362
361
312
293
334
374
349
307
317
369
388
345
310
342
394
391
343
327
365
396
364
312
316
361
371
324
287
315
361
349
298
286
330
363
330
286
301
351
360
314
284
314
358
349
314
332
420
501
515
507
534
565
528
418
321
309
330
316
286
294
342
364
330
287
308
355
355
306
281
318
361
340
293
296
344
368
327
290
316
366
362
312
294
338
378
351
305
311
361
378
337
303
333
383
377
329
316
360
397
369
326
338
390
405
363
333
365
412
402
352
343
387
418
385
337
347
393
399
349
314
343
383
362
307
299
341
367
329
283
299
347
350
304
278
313
355
333
285
286
335
360
321
279
300
350
351
304
282
320
360
336
288
291
340
361
321
283
308
356
351
302
284
324
362
334
287
293
342
359
317
280
308
355
347
296
282
325
361
330
283
293
344
358
313
280
311
359
345
296
286
331
364
329
284
298
349
357
312
282
316
360
343
294
290
337
363
328
286
304
353
357
311
286
322
364
344
297
296
349
377
342
306
328
376
379
335
316
358
399
372
320
318
362
377
332
292
312
359
353
301
281
320
357
329
283
291
342
357
315
279
309
356
343
291
283
339
395
399
400
457
549
593
546
472
432
403
336
263
254
315
361
331
284
296
344
352
307
281
317
361
344
296
291
336
366
330
288
308
359
364
317
292
330
374
354
305
304
353
380
342
302
325
376
377
331
312
352
395
372
326
331
381
402
364
328
356
408
405
356
341
383
422
394
346
353
399
410
363
324
348
390
377
324
307
346
376
339
289
298
347
357
311
278
309
354
341
289
280
325
357
323
280
296
346
353
307
280
315
359
342
293
290
336
364
327
284
302
351
354
309
284
319
360
338
291
290
337
358
321
283
306
354
353
304
283
322
361
336
290
293
341
360
319
282
308
356
350
301
285
326
362
335
290
298
345
359
317
285
313
360
349
301
288
330
364
332
288
300
351
363
319
287
317
362
349
301
293
338
369
336
294
308
355
361
317
291
324
366
349
303
299
344
370
333
293
311
360
363
318
294
329
369
349
302
307
359
385
350
312
333
385
389
345
328
366
401
372
321
321
364
378
351
371
361
308
289
329
364
335
290
300
349
362
319
287
315
356
344
304
309
377
452
470
467
515
581
578
471
356
320
331
310
274
282
335
366
329
284
299
349
355
310
285
320
362
342
296
293
339
365
330
290
310
360
362
318
298
336
376
355
308
309
358
382
343
306
331
381
379
333
315
355
395
372
328
334
384
403
365
333
362
409
404
358
346
387
422
395
349
355
400
409
362
325
349
388
372
320
305
342
369
336
290
300
338
312
283
313
354
339
292
286
329
357
323
282
299
348
353
310
283
318
360
341
295
294
338
363
327
288
307
355
357
311
289
324
363
340
293
295
341
362
323
284
305
353
350
304
287
349
Pomiar: Krystian Czas badania: 17.68 sekund
