383
292
296
346
376
340
302
314
357
362
329
314
336
364
348
317
314
348
365
334
298
311
352
347
298
276
310
349
334
289
285
328
352
322
304
324
375
370
320
290
306
337
324
296
326
381
406
388
352
360
394
395
365
356
404
451
425
377
380
437
477
438
392
425
481
484
461
454
475
479
443
414
451
501
500
387
98
0
12
97
163
222
305
368
387
397
444
513
550
548
556
621
661
661
663
664
664
664
664
664
664
664
665
665
672
665
665
664
664
664
664
664
663
663
663
663
663
660
651
633
631
614
638
663
664
665
664
664
664
664
662
637
505
405
379
355
330
342
394
417
381
333
354
407
402
344
313
334
355
313
250
239
278
288
248
222
250
298
292
241
218
245
274
247
207
222
274
289
250
213
230
268
260
217
202
225
245
218
181
189
227
226
178
155
187
222
201
148
133
170
207
178
137
148
190
195
158
144
176
206
180
140
148
198
219
187
150
169
214
212
168
148
190
231
210
165
169
212
226
187
160
194
243
241
200
186
219
253
232
195
204
246
257
226
204
233
277
265
225
215
254
288
265
229
245
286
300
267
244
268
302
293
251
251
294
320
288
250
270
318
323
277
253
294
334
317
269
272
320
348
309
267
291
341
349
312
285
315
351
337
306
312
357
379
340
309
336
386
395
353
325
357
387
361
317
320
358
368
329
299
324
364
357
311
295
328
358
337
302
310
353
370
333
300
316
358
369
354
377
464
545
560
560
574
582
519
408
323
322
359
358
323
318
358
384
349
307
320
363
373
334
306
336
381
367
324
320
360
387
356
316
334
369
365
317
294
334
388
364
304
299
347
381
338
299
326
388
378
314
288
332
373
345
275
247
302
347
314
259
284
318
299
242
234
296
331
274
207
206
236
223
177
188
336
544
662
663
664
664
665
665
665
665
665
665
665
665
665
665
664
664
663
662
656
536
377
319
341
352
350
365
394
447
483
499
557
649
661
660
660
661
660
644
571
514
544
580
541
462
418
431
435
363
285
313
367
368
342
324
328
341
295
244
265
307
308
238
181
198
239
233
185
141
92
0
0
0
0
0
0
92
662
664
665
664
664
664
663
660
479
179
41
45
28
0
0
0
0
0
0
0
0
0
0
0
0
0
81
185
222
244
260
227
163
140
174
200
164
114
112
138
130
85
64
99
142
129
91
95
132
161
140
185
222
71
0
0
0
112
509
661
643
582
562
544
448
295
231
309
401
418
405
407
396
336
283
300
352
369
323
282
298
321
282
210
200
285
375
384
350
353
387
387
339
310
351
412
417
378
369
416
456
435
406
437
497
507
455
418
446
485
465
413
407
456
485
449
406
423
469
472
427
404
439
474
443
385
373
412
434
398
364
391
445
452
418
412
472
521
454
362
358
432
497
495
469
479
509
497
450
437
477
514
491
446
441
471
473
430
394
415
453
442
397
381
410
435
408
371
383
423
431
393
366
395
438
430
390
385
425
454
427
390
401
442
448
407
381
408
442
424
383
377
413
433
399
360
375
417
417
373
352
385
423
406
363
363
407
431
398
366
388
433
434
392
374
410
446
423
380
382
424
440
399
362
383
424
419
374
356
392
427
404
360
368
420
442
407
374
400
447
444
402
394
436
466
431
383
391
436
443
395
359
383
423
407
359
351
393
420
384
342
357
404
411
363
330
361
400
384
345
358
435
511
522
516
567
625
605
489
380
357
374
351
315
326
376
400
358
314
333
379
379
336
318
354
391
366
321
327
376
397
356
318
342
390
386
342
328
366
400
374
332
341
388
405
368
339
364
407
401
361
352
390
421
396
359
372
416
426
387
363
394
436
424
380
371
411
439
407
366
375
414
416
371
341
365
398
379
331
323
361
382
345
307
322
365
366
321
297
330
370
304
306
347
367
333
299
318
363
363
320
301
334
369
349
306
309
351
369
331
297
318
362
358
314
298
336
370
341
298
305
349
364
326
295
319
360
350
308
298
337
368
339
299
310
355
366
326
298
326
368
355
309
301
342
372
340
300
314
359
366
324
299
330
371
353
308
305
348
371
339
300
317
362
365
323
302
337
376
354
307
308
353
376
341
306
331
382
384
343
324
358
398
380
341
346
390
405
362
324
344
382
373
324
307
342
373
344
300
308
352
366
327
294
319
361
353
310
298
334
361
331
299
328
402
456
464
478
542
591
556
451
366
344
339
300
275
306
359
365
319
293
324
364
347
303
300
343
370
335
297
316
362
365
324
304
338
376
356
312
315
359
381
346
311
332
378
378
334
317
355
392
369
326
332
377
396
360
330
354
399
397
354
342
381
416
392
351
360
405
420
379
345
370
408
396
348
334
368
395
363
317
323
362
368
324
295
325
364
350
304
297
336
364
334
297
310
353
358
319
295
327
366
349
304
300
342
366
333
296
313
357
361
318
296
329
366
347
304
303
344
363
329
295
316
358
355
313
296
332
366
341
298
303
350
367
328
295
320
364
358
315
300
336
370
344
302
311
355
370
328
297
325
369
359
315
304
344
376
347
304
314
359
368
329
301
329
371
359
313
306
347
374
342
302
319
364
371
329
304
336
375
359
314
310
352
378
345
307
326
373
375
332
314
353
395
378
335
335
382
407
375
341
360
400
393
345
323
354
382
355
311
312
352
364
325
293
320
364
359
316
299
337
372
347
301
301
346
371
351
349
419
510
540
527
522
542
515
410
308
288
329
354
328
304
331
370
358
314
304
342
370
342
307
321
364
369
327
304
337
376
364
321
318
360
385
353
316
333
377
381
341
322
356
392
372
332
335
382
405
370
336
357
402
400
360
346
384
420
398
358
366
413
427
388
357
381
425
416
368
351
387
417
387
337
339
379
388
344
309
334
373
362
314
300
338
368
338
298
310
356
364
321
295
327
368
356
309
301
341
369
337
299
316
362
367
323
297
327
368
354
308
304
345
370
336
299
319
364
365
319
295
328
367
347
301
303
347
367
330
295
317
362
359
313
296
334
370
346
302
309
353
369
328
297
323
368
365
321
306
341
373
347
305
310
353
368
333
307
337
379
378
341
325
359
393
374
335
359
410
415
363
333
363
405
392
339
316
343
370
353
316
338
380
376
337
314
342
384
385
362
357
380
396
371
344
367
421
440
437
484
583
658
654
605
563
556
517
430
370
402
488
495
444
415
474
536
524
483
489
550
577
555
547
584
624
638
630
641
662
663
663
664
664
664
664
665
665
665
665
665
665
665
665
665
665
665
665
665
665
665
665
665
665
665
665
665
665
665
665
665
665
665
665
665
665
662
556
252
0
0
0
0
0
0
0
0
0
0
0
0
0
0
0
0
0
0
0
0
0
0
0
0
0
0
0
0
0
0
0
0
0
0
0
0
0
0
0
0
29
11
0
0
0
11
10
0
14
18
0
0
0
0
0
0
0
0
0
0
0
0
0
0
0
0
0
0
0
0
0
0
0
0
0
0
0
0
0
0
0
0
0
0
0
0
0
0
0
0
0
0
0
0
0
0
0
0
0
0
0
0
0
0
0
0
0
0
0
0
0
0
0
0
0
0
0
0
13
71
83
72
95
146
171
157
148
189
240
233
208
231
310
390
414
422
477
542
530
420
310
280
294
292
274
284
325
349
332
306
320
356
355
321
305
339
381
373
343
355
409
441
410
373
394
440
453
425
413
450
488
473
433
437
476
500
485
454
459
491
490
453
430
457
489
476
445
452
485
494
457
432
472
527
524
481
471
511
549
527
481
488
530
544
501
460
483
531
525
477
457
485
521
503
467
479
527
536
492
461
488
534
523
479
467
505
533
506
473
483
524
529
489
464
496
540
529
486
485
530
550
510
470
491
538
536
484
459
546
527
486
479
516
533
491
448
468
520
520
476
463
499
530
504
459
464
509
525
485
445
464
504
493
453
447
483
510
478
436
440
480
494
457
420
444
484
474
426
413
454
487
458
413
419
463
475
430
396
428
476
466
424
422
459
482
452
425
438
477
479
444
425
451
479
460
418
407
437
449
412
378
397
438
434
388
365
394
431
409
362
360
400
420
390
357
365
400
400
379
396
470
552
578
580
601
627
584
463
361
345
368
373
350
343
370
392
372
341
345
375
377
340
323
358
392
374
330
321
354
381
354
311
313
353
363
330
306
329
362
342
303
299
334
359
328
294
306
345
349
311
288
315
350
330
286
286
326
346
312
279
292
322
322
285
269
293
313
282
233
230
265
272
224
176
185
224
211
155
124
149
178
147
91
79
110
121
80
39
52
81
58
4
0
10
32
0
0
0
0
0
0
0
0
0
0
0
0
0
0
0
0
0
0
0
0
0
0
0
0
0
0
0
0
0
0
0
0
0
0
0
0
0
0
0
0
0
0
0
0
0
0
0
0
0
0
0
0
0
0
0
0
0
0
0
0
0
0
0
0
0
0
0
0
0
0
0
0
0
0
0
0
0
0
0
0
0
0
0
0
0
0
0
0
0
0
0
0
0
0
0
0
0
0
0
0
0
0
0
0
0
0
0
0
0
0
0
0
0
0
0
0
0
0
0
0
0
0
0
0
0
0
0
0
0
0
0
0
0
0
0
0
0
0
662
0
0
0
0
0
0
0
149
384
307
0
545
527
393
282
75
323
553
442
382
275
348
361
340
340
344
341
315
284
334
355
391
366
329
305
341
368
351
544
665
665
665
665
674
666
665
665
665
665
665
665
665
665
665
665
665
665
665
665
665
665
665
665
665
665
665
665
665
665
665
665
665
665
665
665
665
665
665
665
665
665
665
665
665
665
665
665
665
665
665
665
665
665
665
665
665
665
665
665
665
665
665
665
665
665
665
665
665
665
665
665
665
665
665
665
665
665
665
665
665
665
665
665
665
665
665
665
665
665
665
665
665
665
665
665
665
665
665
665
664
665
664
665
664
664
664
663
663
663
660
640
534
435
447
528
558
443
283
238
341
461
430
298
205
206
247
232
190
160
114
28
0
0
94
153
81
0
0
0
0
0
0
0
0
0
0
0
0
0
0
0
0
0
0
0
0
0
0
0
0
0
0
0
0
0
0
0
0
0
0
0
0
0
0
0
0
0
18
195
439
651
663
664
664
664
664
665
664
665
664
664
664
665
665
665
665
665
664
664
664
664
663
663
660
656
644
661
664
664
664
664
664
665
665
664
664
664
664
664
664
663
664
664
663
663
663
662
659
536
485
660
664
665
664
664
665
665
665
665
665
665
665
665
664
665
665
665
665
664
664
665
665
664
664
664
664
664
664
664
664
664
664
664
664
664
663
659
553
449
393
327
269
249
234
183
113
94
143
189
188
184
230
313
362
354
349
397
462
484
468
492
586
655
636
582
582
644
660
661
661
663
663
663
662
663
663
663
663
662
662
662
662
658
641
632
640
618
576
568
599
618
582
539
542
568
559
509
477
497
526
501
452
443
476
488
447
408
422
464
462
418
399
432
467
440
388
384
426
446
409
376
402
449
443
394
380
424
468
444
393
394
438
450
400
363
388
428
412
355
332
365
392
354
305
313
362
375
330
298
326
370
359
311
300
340
380
363
347
399
493
550
551
539
551
548
474
364
308
322
347
327
296
312
356
358
312
286
317
356
336
291
290
333
356
322
285
302
345
344
302
283
315
347
327
287
288
325
340
306
276
302
335
332
293
279
311
340
318
281
287
325
339
306
279
302
341
336
298
288
320
348
323
288
295
332
339
302
274
296
328
313
270
261
292
313
283
246
255
291
295
257
235
262
296
281
240
236
273
296
265
231
247
288
290
252
232
263
299
282
243
243
283
303
268
234
253
297
296
253
232
266
302
281
238
240
283
300
261
225
249
293
289
244
229
269
304
275
230
238
285
301
259
226
256
302
292
244
231
274
307
274
230
241
288
262
232
261
304
292
244
237
282
315
287
250
268
316
322
281
260
297
342
321
270
264
303
324
284
240
257
305
304
255
229
263
302
281
234
233
280
304
268
231
253
301
297
246
224
270
325
331
332
388
477
534
513
458
411
370
300
225
205
261
314
295
250
252
292
305
268
238
265
308
300
257
246
285
316
288
251
265
311
321
285
259
289
329
318
278
275
315
342
314
279
295
338
342
305
284
316
354
339
301
300
342
368
340
308
327
372
376
337
319
353
388
370
328
328
365
381
343
306
323
360
352
305
282
312
341
318
275
277
318
333
295
263
286
328
321
280
267
304
336
310
269
277
321
335
297
269
297
340
330
286
276
315
344
314
274
286
333
343
301
274
303
345
330
284
279
322
349
315
275
291
337
342
299
275
308
350
332
288
284
326
353
319
282
301
346
348
305
283
318
356
334
290
291
335
357
321
285
306
351
347
303
288
326
360
335
292
297
342
361
323
288
314
359
352
306
292
330
365
338
296
305
354
373
339
310
338
381
375
335
328
371
400
366
322
330
372
377
330
300
329
368
350
303
295
336
364
330
291
308
354
359
315
291
323
361
341
297
307
370
428
442
453
512
590
595
513
417
374
358
315
271
288
345
371
332
294
317
361
359
315
297
333
369
348
309
315
358
373
336
303
328
373
367
324
312
351
383
358
317
326
370
383
346
320
348
388
382
340
335
374
403
377
342
357
400
410
373
350
379
417
407
369
365
404
430
401
362
375
415
415
370
342
368
400
377
329
324
361
382
349
312
327
367
366
323
304
336
370
350
309
310
351
371
337
304
325
368
365
323
307
342
375
353
312
314
356
373
336
305
332
373
364
319
308
347
380
353
311
320
364
376
337
308
335
376
366
321
312
354
384
351
311
326
373
379
334
307
342
382
365
318
315
358
385
352
315
330
373
374
330
308
343
383
365
321
320
361
383
346
310
331
378
379
337
316
350
386
365
322
325
367
385
348
316
339
384
381
336
321
362
402
382
342
348
390
406
373
346
372
413
405
360
345
378
404
371
327
333
374
382
342
312
338
377
367
324
314
351
378
353
316
328
369
371
328
310
351
410
430
437
480
560
612
574
496
442
412
364
301
281
330
379
362
320
318
356
377
344
312
331
372
370
330
315
349
383
363
326
331
370
385
350
323
347
387
383
344
330
367
400
377
338
346
389
403
364
337
367
411
403
361
352
392
424
400
364
377
420
432
394
366
394
435
427
383
375
411
436
402
358
365
404
407
363
334
361
396
375
326
319
358
383
349
312
326
369
371
330
307
339
376
356
315
319
361
381
344
310
331
375
375
333
314
348
382
360
319
322
363
380
344
311
334
376
371
328
312
347
378
352
312
319
363
378
339
309
334
374
365
324
314
351
381
353
313
323
366
379
339
309
336
378
368
325
318
357
383
352
315
328
369
372
334
314
344
381
362
315
384
Pomiar: Krystian Czas badania: 19.00 sekund (Podczas badania odpięto elektrodę! Sygnał może być niepełny)
